4000.000000	99.253176 
3999.000000	99.252014 
3998.000000	99.251172 
3997.000000	99.251049 
3996.000000	99.251441 
3995.000000	99.251783 
3994.000000	99.251812 
3993.000000	99.251751 
3992.000000	99.251814 
3991.000000	99.251865 
3990.000000	99.251636 
3989.000000	99.251063 
3988.000000	99.250327 
3987.000000	99.249670 
3986.000000	99.249317 
3985.000000	99.249408 
3984.000000	99.249895 
3983.000000	99.250586 
3982.000000	99.251361 
3981.000000	99.252283 
3980.000000	99.253369 
3979.000000	99.254354 
3978.000000	99.254848 
3977.000000	99.254725 
3976.000000	99.254196 
3975.000000	99.253510 
3974.000000	99.252698 
3973.000000	99.251704 
3972.000000	99.250617 
3971.000000	99.249741 
3970.000000	99.249465 
3969.000000	99.249973 
3968.000000	99.251065 
3967.000000	99.252219 
3966.000000	99.252940 
3965.000000	99.253091 
3964.000000	99.252853 
3963.000000	99.252540 
3962.000000	99.252391 
3961.000000	99.252422 
3960.000000	99.252371 
3959.000000	99.251902 
3958.000000	99.251037 
3957.000000	99.250273 
3956.000000	99.250148 
3955.000000	99.250708 
3954.000000	99.251511 
3953.000000	99.252063 
3952.000000	99.252159 
3951.000000	99.251878 
3950.000000	99.251358 
3949.000000	99.250698 
3948.000000	99.250033 
3947.000000	99.249615 
3946.000000	99.249605 
3945.000000	99.249820 
3944.000000	99.249806 
3943.000000	99.249246 
3942.000000	99.248303 
3941.000000	99.247472 
3940.000000	99.246959 
3939.000000	99.246517 
3938.000000	99.246081 
3937.000000	99.245989 
3936.000000	99.246514 
3935.000000	99.247388 
3934.000000	99.248141 
3933.000000	99.248701 
3932.000000	99.249237 
3931.000000	99.249686 
3930.000000	99.249680 
3929.000000	99.249066 
3928.000000	99.248108 
3927.000000	99.246922 
3926.000000	99.245429 
3925.000000	99.243960 
3924.000000	99.243411 
3923.000000	99.244026 
3922.000000	99.244823 
3921.000000	99.244820 
3920.000000	99.244283 
3919.000000	99.244025 
3918.000000	99.244206 
3917.000000	99.244429 
3916.000000	99.244616 
3915.000000	99.244981 
3914.000000	99.245435 
3913.000000	99.245647 
3912.000000	99.245560 
3911.000000	99.245344 
3910.000000	99.245212 
3909.000000	99.245232 
3908.000000	99.245407 
3907.000000	99.245662 
3906.000000	99.245886 
3905.000000	99.245987 
3904.000000	99.245966 
3903.000000	99.245894 
3902.000000	99.245799 
3901.000000	99.245674 
3900.000000	99.245546 
3899.000000	99.245426 
3898.000000	99.245290 
3897.000000	99.245146 
3896.000000	99.245007 
3895.000000	99.244877 
3894.000000	99.244758 
3893.000000	99.244654 
3892.000000	99.244568 
3891.000000	99.244496 
3890.000000	99.244438 
3889.000000	99.244390 
3888.000000	99.244343 
3887.000000	99.244286 
3886.000000	99.244218 
3885.000000	99.244148 
3884.000000	99.244083 
3883.000000	99.244021 
3882.000000	99.243950 
3881.000000	99.243869 
3880.000000	99.243791 
3879.000000	99.243734 
3878.000000	99.243706 
3877.000000	99.243696 
3876.000000	99.243689 
3875.000000	99.243675 
3874.000000	99.243656 
3873.000000	99.243634 
3872.000000	99.243609 
3871.000000	99.243575 
3870.000000	99.243536 
3869.000000	99.243505 
3868.000000	99.243489 
3867.000000	99.243475 
3866.000000	99.243447 
3865.000000	99.243406 
3864.000000	99.243367 
3863.000000	99.243338 
3862.000000	99.243321 
3861.000000	99.243323 
3860.000000	99.243354 
3859.000000	99.243421 
3858.000000	99.243520 
3857.000000	99.243649 
3856.000000	99.243809 
3855.000000	99.243999 
3854.000000	99.244198 
3853.000000	99.244378 
3852.000000	99.244538 
3851.000000	99.244685 
3850.000000	99.244811 
3849.000000	99.244910 
3848.000000	99.244990 
3847.000000	99.245062 
3846.000000	99.245140 
3845.000000	99.245229 
3844.000000	99.245328 
3843.000000	99.245428 
3842.000000	99.245517 
3841.000000	99.245591 
3840.000000	99.245648 
3839.000000	99.245681 
3838.000000	99.245679 
3837.000000	99.245631 
3836.000000	99.245534 
3835.000000	99.245393 
3834.000000	99.245222 
3833.000000	99.245034 
3832.000000	99.244840 
3831.000000	99.244645 
3830.000000	99.244450 
3829.000000	99.244253 
3828.000000	99.244053 
3827.000000	99.243848 
3826.000000	99.243640 
3825.000000	99.243434 
3824.000000	99.243237 
3823.000000	99.243044 
3822.000000	99.242838 
3821.000000	99.242603 
3820.000000	99.242344 
3819.000000	99.242063 
3818.000000	99.241751 
3817.000000	99.241394 
3816.000000	99.240999 
3815.000000	99.240589 
3814.000000	99.240180 
3813.000000	99.239768 
3812.000000	99.239350 
3811.000000	99.238941 
3810.000000	99.238562 
3809.000000	99.238218 
3808.000000	99.237898 
3807.000000	99.237597 
3806.000000	99.237311 
3805.000000	99.237040 
3804.000000	99.236772 
3803.000000	99.236495 
3802.000000	99.236211 
3801.000000	99.235939 
3800.000000	99.235698 
3799.000000	99.235491 
3798.000000	99.235308 
3797.000000	99.235134 
3796.000000	99.234975 
3795.000000	99.234875 
3794.000000	99.234873 
3793.000000	99.234956 
3792.000000	99.235088 
3791.000000	99.235261 
3790.000000	99.235463 
3789.000000	99.235674 
3788.000000	99.235898 
3787.000000	99.236163 
3786.000000	99.236458 
3785.000000	99.236726 
3784.000000	99.236952 
3783.000000	99.237157 
3782.000000	99.237328 
3781.000000	99.237433 
3780.000000	99.237496 
3779.000000	99.237586 
3778.000000	99.237750 
3777.000000	99.237981 
3776.000000	99.238259 
3775.000000	99.238579 
3774.000000	99.238939 
3773.000000	99.239318 
3772.000000	99.239701 
3771.000000	99.240078 
3770.000000	99.240451 
3769.000000	99.240820 
3768.000000	99.241183 
3767.000000	99.241533 
3766.000000	99.241868 
3765.000000	99.242194 
3764.000000	99.242520 
3763.000000	99.242845 
3762.000000	99.243165 
3761.000000	99.243478 
3760.000000	99.243788 
3759.000000	99.244088 
3758.000000	99.244368 
3757.000000	99.244615 
3756.000000	99.244831 
3755.000000	99.245024 
3754.000000	99.245190 
3753.000000	99.245321 
3752.000000	99.245400 
3751.000000	99.245415 
3750.000000	99.245355 
3749.000000	99.245230 
3748.000000	99.245054 
3747.000000	99.244830 
3746.000000	99.244556 
3745.000000	99.244233 
3744.000000	99.243875 
3743.000000	99.243501 
3742.000000	99.243111 
3741.000000	99.242694 
3740.000000	99.242218 
3739.000000	99.241686 
3738.000000	99.241194 
3737.000000	99.240772 
3736.000000	99.240280 
3735.000000	99.239623 
3734.000000	99.238807 
3733.000000	99.237697 
3732.000000	99.236248 
3731.000000	99.234949 
3730.000000	99.234271 
3729.000000	99.233887 
3728.000000	99.233017 
3727.000000	99.231557 
3726.000000	99.230236 
3725.000000	99.229577 
3724.000000	99.228928 
3723.000000	99.227378 
3722.000000	99.225029 
3721.000000	99.222727 
3720.000000	99.221015 
3719.000000	99.219557 
3718.000000	99.217780 
3717.000000	99.215520 
3716.000000	99.213026 
3715.000000	99.210255 
3714.000000	99.207057 
3713.000000	99.203886 
3712.000000	99.201024 
3711.000000	99.198069 
3710.000000	99.195017 
3709.000000	99.192092 
3708.000000	99.189112 
3707.000000	99.185843 
3706.000000	99.182399 
3705.000000	99.178946 
3704.000000	99.175423 
3703.000000	99.171705 
3702.000000	99.167787 
3701.000000	99.164153 
3700.000000	99.161730 
3699.000000	99.160138 
3698.000000	99.157464 
3697.000000	99.152912 
3696.000000	99.148052 
3695.000000	99.144757 
3694.000000	99.142940 
3693.000000	99.141567 
3692.000000	99.140533 
3691.000000	99.139939 
3690.000000	99.138390 
3689.000000	99.133969 
3688.000000	99.128018 
3687.000000	99.124204 
3686.000000	99.122960 
3685.000000	99.121624 
3684.000000	99.119280 
3683.000000	99.117500 
3682.000000	99.117061 
3681.000000	99.116318 
3680.000000	99.113562 
3679.000000	99.109867 
3678.000000	99.107095 
3677.000000	99.105223 
3676.000000	99.102432 
3675.000000	99.099480 
3674.000000	99.101292 
3673.000000	99.107528 
3672.000000	99.111286 
3671.000000	99.109985 
3670.000000	99.106070 
3669.000000	99.102490 
3668.000000	99.100850 
3667.000000	99.099637 
3666.000000	99.097341 
3665.000000	99.095303 
3664.000000	99.095434 
3663.000000	99.097804 
3662.000000	99.100987 
3661.000000	99.103775 
3660.000000	99.106185 
3659.000000	99.108801 
3658.000000	99.111369 
3657.000000	99.113006 
3656.000000	99.113775 
3655.000000	99.116358 
3654.000000	99.121917 
3653.000000	99.127834 
3652.000000	99.132514 
3651.000000	99.137358 
3650.000000	99.141882 
3649.000000	99.142451 
3648.000000	99.138592 
3647.000000	99.134630 
3646.000000	99.134134 
3645.000000	99.136650 
3644.000000	99.139854 
3643.000000	99.142392 
3642.000000	99.144790 
3641.000000	99.147944 
3640.000000	99.151963 
3639.000000	99.156493 
3638.000000	99.161878 
3637.000000	99.168680 
3636.000000	99.175562 
3635.000000	99.179778 
3634.000000	99.180483 
3633.000000	99.180216 
3632.000000	99.181600 
3631.000000	99.184648 
3630.000000	99.187594 
3629.000000	99.187530 
3628.000000	99.185121 
3627.000000	99.185537 
3626.000000	99.187975 
3625.000000	99.188737 
3624.000000	99.188761 
3623.000000	99.190178 
3622.000000	99.192463 
3621.000000	99.193654 
3620.000000	99.193161 
3619.000000	99.192095 
3618.000000	99.192263 
3617.000000	99.194397 
3616.000000	99.196922 
3615.000000	99.197723 
3614.000000	99.196270 
3613.000000	99.193761 
3612.000000	99.191917 
3611.000000	99.191429 
3610.000000	99.191717 
3609.000000	99.192213 
3608.000000	99.192791 
3607.000000	99.193418 
3606.000000	99.193966 
3605.000000	99.194383 
3604.000000	99.195149 
3603.000000	99.196682 
3602.000000	99.198387 
3601.000000	99.199498 
3600.000000	99.200424 
3599.000000	99.202031 
3598.000000	99.203887 
3597.000000	99.204862 
3596.000000	99.204281 
3595.000000	99.202452 
3594.000000	99.200322 
3593.000000	99.199319 
3592.000000	99.200440 
3591.000000	99.203738 
3590.000000	99.208176 
3589.000000	99.211720 
3588.000000	99.211975 
3587.000000	99.208340 
3586.000000	99.203282 
3585.000000	99.199505 
3584.000000	99.197218 
3583.000000	99.195647 
3582.000000	99.194347 
3581.000000	99.193089 
3580.000000	99.191557 
3579.000000	99.189585 
3578.000000	99.187147 
3577.000000	99.184564 
3576.000000	99.182476 
3575.000000	99.181538 
3574.000000	99.182037 
3573.000000	99.183754 
3572.000000	99.186252 
3571.000000	99.188979 
3570.000000	99.191288 
3569.000000	99.192442 
3568.000000	99.191960 
3567.000000	99.190207 
3566.000000	99.188723 
3565.000000	99.188753 
3564.000000	99.189628 
3563.000000	99.189955 
3562.000000	99.189263 
3561.000000	99.187943 
3560.000000	99.186519 
3559.000000	99.185314 
3558.000000	99.184489 
3557.000000	99.184131 
3556.000000	99.184333 
3555.000000	99.184959 
3554.000000	99.185513 
3553.000000	99.185426 
3552.000000	99.184636 
3551.000000	99.183566 
3550.000000	99.182528 
3549.000000	99.181562 
3548.000000	99.180892 
3547.000000	99.180821 
3546.000000	99.181139 
3545.000000	99.181198 
3544.000000	99.180638 
3543.000000	99.179677 
3542.000000	99.178772 
3541.000000	99.178215 
3540.000000	99.178009 
3539.000000	99.177956 
3538.000000	99.177845 
3537.000000	99.177571 
3536.000000	99.177162 
3535.000000	99.176713 
3534.000000	99.176290 
3533.000000	99.175906 
3532.000000	99.175530 
3531.000000	99.175137 
3530.000000	99.174721 
3529.000000	99.174285 
3528.000000	99.173835 
3527.000000	99.173377 
3526.000000	99.172915 
3525.000000	99.172447 
3524.000000	99.171971 
3523.000000	99.171486 
3522.000000	99.170997 
3521.000000	99.170505 
3520.000000	99.170015 
3519.000000	99.169529 
3518.000000	99.169051 
3517.000000	99.168582 
3516.000000	99.168121 
3515.000000	99.167666 
3514.000000	99.167212 
3513.000000	99.166760 
3512.000000	99.166307 
3511.000000	99.165853 
3510.000000	99.165396 
3509.000000	99.164933 
3508.000000	99.164465 
3507.000000	99.163988 
3506.000000	99.163497 
3505.000000	99.162986 
3504.000000	99.162452 
3503.000000	99.161904 
3502.000000	99.161351 
3501.000000	99.160802 
3500.000000	99.160252 
3499.000000	99.159691 
3498.000000	99.159110 
3497.000000	99.158510 
3496.000000	99.157902 
3495.000000	99.157300 
3494.000000	99.156716 
3493.000000	99.156148 
3492.000000	99.155592 
3491.000000	99.155042 
3490.000000	99.154495 
3489.000000	99.153954 
3488.000000	99.153420 
3487.000000	99.152894 
3486.000000	99.152374 
3485.000000	99.151856 
3484.000000	99.151340 
3483.000000	99.150829 
3482.000000	99.150324 
3481.000000	99.149827 
3480.000000	99.149338 
3479.000000	99.148855 
3478.000000	99.148371 
3477.000000	99.147898 
3476.000000	99.147449 
3475.000000	99.146989 
3474.000000	99.146459 
3473.000000	99.145876 
3472.000000	99.145387 
3471.000000	99.145127 
3470.000000	99.145051 
3469.000000	99.144953 
3468.000000	99.144664 
3467.000000	99.144141 
3466.000000	99.143376 
3465.000000	99.142339 
3464.000000	99.141083 
3463.000000	99.139829 
3462.000000	99.138796 
3461.000000	99.137956 
3460.000000	99.137054 
3459.000000	99.136011 
3458.000000	99.135202 
3457.000000	99.135098 
3456.000000	99.135733 
3455.000000	99.136661 
3454.000000	99.137429 
3453.000000	99.138117 
3452.000000	99.139189 
3451.000000	99.140842 
3450.000000	99.142569 
3449.000000	99.143443 
3448.000000	99.142849 
3447.000000	99.140988 
3446.000000	99.138672 
3445.000000	99.136681 
3444.000000	99.135349 
3443.000000	99.134723 
3442.000000	99.134792 
3441.000000	99.135454 
3440.000000	99.136433 
3439.000000	99.137340 
3438.000000	99.137844 
3437.000000	99.137749 
3436.000000	99.137034 
3435.000000	99.135942 
3434.000000	99.134927 
3433.000000	99.134375 
3432.000000	99.134279 
3431.000000	99.134246 
3430.000000	99.133798 
3429.000000	99.132762 
3428.000000	99.131399 
3427.000000	99.130153 
3426.000000	99.129368 
3425.000000	99.129235 
3424.000000	99.129823 
3423.000000	99.130973 
3422.000000	99.132199 
3421.000000	99.132915 
3420.000000	99.132884 
3419.000000	99.132444 
3418.000000	99.132214 
3417.000000	99.132513 
3416.000000	99.132985 
3415.000000	99.132869 
3414.000000	99.131763 
3413.000000	99.130136 
3412.000000	99.128947 
3411.000000	99.128717 
3410.000000	99.129182 
3409.000000	99.129778 
3408.000000	99.130171 
3407.000000	99.130246 
3406.000000	99.129995 
3405.000000	99.129716 
3404.000000	99.129981 
3403.000000	99.131093 
3402.000000	99.132718 
3401.000000	99.134212 
3400.000000	99.135122 
3399.000000	99.135294 
3398.000000	99.134867 
3397.000000	99.134420 
3396.000000	99.134717 
3395.000000	99.135947 
3394.000000	99.137472 
3393.000000	99.138592 
3392.000000	99.139293 
3391.000000	99.139910 
3390.000000	99.140353 
3389.000000	99.140176 
3388.000000	99.139256 
3387.000000	99.137925 
3386.000000	99.136504 
3385.000000	99.135091 
3384.000000	99.133822 
3383.000000	99.132982 
3382.000000	99.132707 
3381.000000	99.132743 
3380.000000	99.132570 
3379.000000	99.131822 
3378.000000	99.130694 
3377.000000	99.130007 
3376.000000	99.130601 
3375.000000	99.132541 
3374.000000	99.134952 
3373.000000	99.136732 
3372.000000	99.137419 
3371.000000	99.137293 
3370.000000	99.136929 
3369.000000	99.136791 
3368.000000	99.137066 
3367.000000	99.137592 
3366.000000	99.137949 
3365.000000	99.137785 
3364.000000	99.137158 
3363.000000	99.136496 
3362.000000	99.136210 
3361.000000	99.136341 
3360.000000	99.136528 
3359.000000	99.136335 
3358.000000	99.135712 
3357.000000	99.135169 
3356.000000	99.135350 
3355.000000	99.136374 
3354.000000	99.137718 
3353.000000	99.138753 
3352.000000	99.139315 
3351.000000	99.139651 
3350.000000	99.140012 
3349.000000	99.140474 
3348.000000	99.141026 
3347.000000	99.141619 
3346.000000	99.142136 
3345.000000	99.142447 
3344.000000	99.142533 
3343.000000	99.142488 
3342.000000	99.142434 
3341.000000	99.142466 
3340.000000	99.142651 
3339.000000	99.143000 
3338.000000	99.143421 
3337.000000	99.143765 
3336.000000	99.143968 
3335.000000	99.144095 
3334.000000	99.144273 
3333.000000	99.144593 
3332.000000	99.145057 
3331.000000	99.145569 
3330.000000	99.145993 
3329.000000	99.146277 
3328.000000	99.146497 
3327.000000	99.146772 
3326.000000	99.147124 
3325.000000	99.147471 
3324.000000	99.147762 
3323.000000	99.148082 
3322.000000	99.148556 
3321.000000	99.149154 
3320.000000	99.149648 
3319.000000	99.149833 
3318.000000	99.149784 
3317.000000	99.149847 
3316.000000	99.150300 
3315.000000	99.151073 
3314.000000	99.151815 
3313.000000	99.152271 
3312.000000	99.152495 
3311.000000	99.152728 
3310.000000	99.153127 
3309.000000	99.153687 
3308.000000	99.154337 
3307.000000	99.155044 
3306.000000	99.155758 
3305.000000	99.156261 
3304.000000	99.156186 
3303.000000	99.155309 
3302.000000	99.153940 
3301.000000	99.152942 
3300.000000	99.153082 
3299.000000	99.154401 
3298.000000	99.156238 
3297.000000	99.157957 
3296.000000	99.159479 
3295.000000	99.161025 
3294.000000	99.162589 
3293.000000	99.163875 
3292.000000	99.164585 
3291.000000	99.164596 
3290.000000	99.163946 
3289.000000	99.162837 
3288.000000	99.161608 
3287.000000	99.160620 
3286.000000	99.160092 
3285.000000	99.159976 
3284.000000	99.159935 
3283.000000	99.159571 
3282.000000	99.158867 
3281.000000	99.158286 
3280.000000	99.158203 
3279.000000	99.158374 
3278.000000	99.158300 
3277.000000	99.158024 
3276.000000	99.158148 
3275.000000	99.159020 
3274.000000	99.160302 
3273.000000	99.161383 
3272.000000	99.161856 
3271.000000	99.161508 
3270.000000	99.160293 
3269.000000	99.158657 
3268.000000	99.157590 
3267.000000	99.157941 
3266.000000	99.159774 
3265.000000	99.162449 
3264.000000	99.165165 
3263.000000	99.167355 
3262.000000	99.168846 
3261.000000	99.169862 
3260.000000	99.170710 
3259.000000	99.171280 
3258.000000	99.171032 
3257.000000	99.169646 
3256.000000	99.167522 
3255.000000	99.165521 
3254.000000	99.164360 
3253.000000	99.164329 
3252.000000	99.165297 
3251.000000	99.166745 
3250.000000	99.167998 
3249.000000	99.168693 
3248.000000	99.168952 
3247.000000	99.169025 
3246.000000	99.168946 
3245.000000	99.168690 
3244.000000	99.168465 
3243.000000	99.168609 
3242.000000	99.169280 
3241.000000	99.170351 
3240.000000	99.171450 
3239.000000	99.172010 
3238.000000	99.171552 
3237.000000	99.170147 
3236.000000	99.168526 
3235.000000	99.167463 
3234.000000	99.167114 
3233.000000	99.167200 
3232.000000	99.167627 
3231.000000	99.168539 
3230.000000	99.169818 
3229.000000	99.170905 
3228.000000	99.171287 
3227.000000	99.170965 
3226.000000	99.170361 
3225.000000	99.170009 
3224.000000	99.170330 
3223.000000	99.171440 
3222.000000	99.173040 
3221.000000	99.174601 
3220.000000	99.175781 
3219.000000	99.176586 
3218.000000	99.177130 
3217.000000	99.177399 
3216.000000	99.177368 
3215.000000	99.177193 
3214.000000	99.177138 
3213.000000	99.177314 
3212.000000	99.177645 
3211.000000	99.178070 
3210.000000	99.178618 
3209.000000	99.179233 
3208.000000	99.179671 
3207.000000	99.179672 
3206.000000	99.179228 
3205.000000	99.178657 
3204.000000	99.178427 
3203.000000	99.178869 
3202.000000	99.180007 
3201.000000	99.181567 
3200.000000	99.183132 
3199.000000	99.184323 
3198.000000	99.184905 
3197.000000	99.184853 
3196.000000	99.184418 
3195.000000	99.184044 
3194.000000	99.183994 
3193.000000	99.184080 
3192.000000	99.183937 
3191.000000	99.183621 
3190.000000	99.183700 
3189.000000	99.184603 
3188.000000	99.186009 
3187.000000	99.187059 
3186.000000	99.187231 
3185.000000	99.186785 
3184.000000	99.186363 
3183.000000	99.186327 
3182.000000	99.186604 
3181.000000	99.186954 
3180.000000	99.187201 
3179.000000	99.187314 
3178.000000	99.187451 
3177.000000	99.187827 
3176.000000	99.188448 
3175.000000	99.189108 
3174.000000	99.189759 
3173.000000	99.190691 
3172.000000	99.192104 
3171.000000	99.193643 
3170.000000	99.194670 
3169.000000	99.195025 
3168.000000	99.195224 
3167.000000	99.195845 
3166.000000	99.196927 
3165.000000	99.198075 
3164.000000	99.198960 
3163.000000	99.199553 
3162.000000	99.199964 
3161.000000	99.200305 
3160.000000	99.200718 
3159.000000	99.201365 
3158.000000	99.202250 
3157.000000	99.203118 
3156.000000	99.203623 
3155.000000	99.203635 
3154.000000	99.203392 
3153.000000	99.203316 
3152.000000	99.203627 
3151.000000	99.204101 
3150.000000	99.204269 
3149.000000	99.203924 
3148.000000	99.203427 
3147.000000	99.203406 
3146.000000	99.204131 
3145.000000	99.205234 
3144.000000	99.206070 
3143.000000	99.206411 
3142.000000	99.206638 
3141.000000	99.207219 
3140.000000	99.208119 
3139.000000	99.208851 
3138.000000	99.209069 
3137.000000	99.208952 
3136.000000	99.208964 
3135.000000	99.209312 
3134.000000	99.209791 
3133.000000	99.210098 
3132.000000	99.210159 
3131.000000	99.210110 
3130.000000	99.210059 
3129.000000	99.209949 
3128.000000	99.209671 
3127.000000	99.209270 
3126.000000	99.209003 
3125.000000	99.209133 
3124.000000	99.209688 
3123.000000	99.210409 
3122.000000	99.210955 
3121.000000	99.211218 
3120.000000	99.211390 
3119.000000	99.211723 
3118.000000	99.212208 
3117.000000	99.212543 
3116.000000	99.212452 
3115.000000	99.211994 
3114.000000	99.211483 
3113.000000	99.211114 
3112.000000	99.210796 
3111.000000	99.210451 
3110.000000	99.210339 
3109.000000	99.210794 
3108.000000	99.211680 
3107.000000	99.212362 
3106.000000	99.212362 
3105.000000	99.211917 
3104.000000	99.211740 
3103.000000	99.212331 
3102.000000	99.213650 
3101.000000	99.215284 
3100.000000	99.216694 
3099.000000	99.217425 
3098.000000	99.217314 
3097.000000	99.216628 
3096.000000	99.215937 
3095.000000	99.215672 
3094.000000	99.215890 
3093.000000	99.216432 
3092.000000	99.217121 
3091.000000	99.217739 
3090.000000	99.218001 
3089.000000	99.217818 
3088.000000	99.217551 
3087.000000	99.217774 
3086.000000	99.218651 
3085.000000	99.219739 
3084.000000	99.220519 
3083.000000	99.220950 
3082.000000	99.221344 
3081.000000	99.221848 
3080.000000	99.222194 
3079.000000	99.221917 
3078.000000	99.220659 
3077.000000	99.218322 
3076.000000	99.215278 
3075.000000	99.212551 
3074.000000	99.211412 
3073.000000	99.212425 
3072.000000	99.214969 
3071.000000	99.217947 
3070.000000	99.220736 
3069.000000	99.222900 
3068.000000	99.223248 
3067.000000	99.220293 
3066.000000	99.214242 
3065.000000	99.207828 
3064.000000	99.204173 
3063.000000	99.203935 
3062.000000	99.205252 
3061.000000	99.206189 
3060.000000	99.206482 
3059.000000	99.206924 
3058.000000	99.207928 
3057.000000	99.209065 
3056.000000	99.209580 
3055.000000	99.209161 
3054.000000	99.208346 
3053.000000	99.208021 
3052.000000	99.208289 
3051.000000	99.208183 
3050.000000	99.206961 
3049.000000	99.205200 
3048.000000	99.203762 
3047.000000	99.202080 
3046.000000	99.198779 
3045.000000	99.194017 
3044.000000	99.189931 
3043.000000	99.188208 
3042.000000	99.188135 
3041.000000	99.187496 
3040.000000	99.184669 
3039.000000	99.179523 
3038.000000	99.173173 
3037.000000	99.167464 
3036.000000	99.163922 
3035.000000	99.162376 
3034.000000	99.160959 
3033.000000	99.157844 
3032.000000	99.152538 
3031.000000	99.145477 
3030.000000	99.136905 
3029.000000	99.126588 
3028.000000	99.114614 
3027.000000	99.102063 
3026.000000	99.090704 
3025.000000	99.081835 
3024.000000	99.075051 
3023.000000	99.068133 
3022.000000	99.058753 
3021.000000	99.046608 
3020.000000	99.033709 
3019.000000	99.022469 
3018.000000	99.013838 
3017.000000	99.007222 
3016.000000	99.001360 
3015.000000	98.994785 
3014.000000	98.986041 
3013.000000	98.974174 
3012.000000	98.958981 
3011.000000	98.940734 
3010.000000	98.920181 
3009.000000	98.899089 
3008.000000	98.880158 
3007.000000	98.865638 
3006.000000	98.855855 
3005.000000	98.848970 
3004.000000	98.841796 
3003.000000	98.831141 
3002.000000	98.815573 
3001.000000	98.796873 
3000.000000	98.779186 
2999.000000	98.765657 
2998.000000	98.756022 
2997.000000	98.748110 
2996.000000	98.741070 
2995.000000	98.735467 
2994.000000	98.729784 
2993.000000	98.718790 
2992.000000	98.697706 
2991.000000	98.668395 
2990.000000	98.640064 
2989.000000	98.622383 
2988.000000	98.618113 
2987.000000	98.622548 
2986.000000	98.629000 
2985.000000	98.634264 
2984.000000	98.638816 
2983.000000	98.643430 
2982.000000	98.647224 
2981.000000	98.648630 
2980.000000	98.647058 
2979.000000	98.643279 
2978.000000	98.638778 
2977.000000	98.634909 
2976.000000	98.632090 
2975.000000	98.629555 
2974.000000	98.626222 
2973.000000	98.621942 
2972.000000	98.617601 
2971.000000	98.614112 
2970.000000	98.611890 
2969.000000	98.611440 
2968.000000	98.613724 
2967.000000	98.619407 
2966.000000	98.627971 
2965.000000	98.637913 
2964.000000	98.647746 
2963.000000	98.656766 
2962.000000	98.665025 
2961.000000	98.672696 
2960.000000	98.679488 
2959.000000	98.684899 
2958.000000	98.689236 
2957.000000	98.693897 
2956.000000	98.699899 
2955.000000	98.706313 
2954.000000	98.711138 
2953.000000	98.714184 
2952.000000	98.718297 
2951.000000	98.726834 
2950.000000	98.739808 
2949.000000	98.753023 
2948.000000	98.761483 
2947.000000	98.763522 
2946.000000	98.761693 
2945.000000	98.759967 
2944.000000	98.759906 
2943.000000	98.759878 
2942.000000	98.757860 
2941.000000	98.753769 
2940.000000	98.748702 
2939.000000	98.743117 
2938.000000	98.736894 
2937.000000	98.730696 
2936.000000	98.725980 
2935.000000	98.723473 
2934.000000	98.722427 
2933.000000	98.721503 
2932.000000	98.719726 
2931.000000	98.716540 
2930.000000	98.711735 
2929.000000	98.705655 
2928.000000	98.699101 
2927.000000	98.692936 
2926.000000	98.688045 
2925.000000	98.685351 
2924.000000	98.685172 
2923.000000	98.686735 
2922.000000	98.689026 
2921.000000	98.692010 
2920.000000	98.696258 
2919.000000	98.701545 
2918.000000	98.706709 
2917.000000	98.710822 
2916.000000	98.713651 
2915.000000	98.715072 
2914.000000	98.715145 
2913.000000	98.714892 
2912.000000	98.715790 
2911.000000	98.717941 
2910.000000	98.719657 
2909.000000	98.719459 
2908.000000	98.717739 
2907.000000	98.715768 
2906.000000	98.713724 
2905.000000	98.710454 
2904.000000	98.705031 
2903.000000	98.698252 
2902.000000	98.692994 
2901.000000	98.693019 
2900.000000	98.700631 
2899.000000	98.714664 
2898.000000	98.730511 
2897.000000	98.743240 
2896.000000	98.751077 
2895.000000	98.755820 
2894.000000	98.760344 
2893.000000	98.766009 
2892.000000	98.772096 
2891.000000	98.777137 
2890.000000	98.780625 
2889.000000	98.783509 
2888.000000	98.787094 
2887.000000	98.791706 
2886.000000	98.796754 
2885.000000	98.801905 
2884.000000	98.807524 
2883.000000	98.813919 
2882.000000	98.820828 
2881.000000	98.828051 
2880.000000	98.836056 
2879.000000	98.845489 
2878.000000	98.856292 
2877.000000	98.867510 
2876.000000	98.877675 
2875.000000	98.885331 
2874.000000	98.889746 
2873.000000	98.891663 
2872.000000	98.893184 
2871.000000	98.896379 
2870.000000	98.901938 
2869.000000	98.909157 
2868.000000	98.916906 
2867.000000	98.924484 
2866.000000	98.931973 
2865.000000	98.940068 
2864.000000	98.949217 
2863.000000	98.958585 
2862.000000	98.966233 
2861.000000	98.970901 
2860.000000	98.973560 
2859.000000	98.976790 
2858.000000	98.982438 
2857.000000	98.990063 
2856.000000	98.997676 
2855.000000	99.003924 
2854.000000	99.009384 
2853.000000	99.015688 
2852.000000	99.023625 
2851.000000	99.032550 
2850.000000	99.041718 
2849.000000	99.051481 
2848.000000	99.062469 
2847.000000	99.073913 
2846.000000	99.083763 
2845.000000	99.090600 
2844.000000	99.094819 
2843.000000	99.098020 
2842.000000	99.101992 
2841.000000	99.108212 
2840.000000	99.117059 
2839.000000	99.126838 
2838.000000	99.134460 
2837.000000	99.138034 
2836.000000	99.138499 
2835.000000	99.138525 
2834.000000	99.140194 
2833.000000	99.144062 
2832.000000	99.149660 
2831.000000	99.155956 
2830.000000	99.161671 
2829.000000	99.166011 
2828.000000	99.169166 
2827.000000	99.171759 
2826.000000	99.173966 
2825.000000	99.175503 
2824.000000	99.176266 
2823.000000	99.176689 
2822.000000	99.177658 
2821.000000	99.180143 
2820.000000	99.184387 
2819.000000	99.189301 
2818.000000	99.193242 
2817.000000	99.195667 
2816.000000	99.197360 
2815.000000	99.198877 
2814.000000	99.199661 
2813.000000	99.199190 
2812.000000	99.198105 
2811.000000	99.197416 
2810.000000	99.197230 
2809.000000	99.197196 
2808.000000	99.197627 
2807.000000	99.199202 
2806.000000	99.201751 
2805.000000	99.204245 
2804.000000	99.205971 
2803.000000	99.207166 
2802.000000	99.208583 
2801.000000	99.210795 
2800.000000	99.213693 
2799.000000	99.216295 
2798.000000	99.217453 
2797.000000	99.217146 
2796.000000	99.216671 
2795.000000	99.217117 
2794.000000	99.218144 
2793.000000	99.218704 
2792.000000	99.218423 
2791.000000	99.217715 
2790.000000	99.217060 
2789.000000	99.216817 
2788.000000	99.217367 
2787.000000	99.218741 
2786.000000	99.220321 
2785.000000	99.221461 
2784.000000	99.222191 
2783.000000	99.222848 
2782.000000	99.223314 
2781.000000	99.223222 
2780.000000	99.222755 
2779.000000	99.222630 
2778.000000	99.223200 
2777.000000	99.224068 
2776.000000	99.224651 
2775.000000	99.224773 
2774.000000	99.224578 
2773.000000	99.224250 
2772.000000	99.223990 
2771.000000	99.224048 
2770.000000	99.224599 
2769.000000	99.225700 
2768.000000	99.227389 
2767.000000	99.229602 
2766.000000	99.231900 
2765.000000	99.233540 
2764.000000	99.234059 
2763.000000	99.233693 
2762.000000	99.233202 
2761.000000	99.233259 
2760.000000	99.234017 
2759.000000	99.235145 
2758.000000	99.236135 
2757.000000	99.236675 
2756.000000	99.236875 
2755.000000	99.237116 
2754.000000	99.237577 
2753.000000	99.237958 
2752.000000	99.237806 
2751.000000	99.237098 
2750.000000	99.236394 
2749.000000	99.236315 
2748.000000	99.236884 
2747.000000	99.237515 
2746.000000	99.237656 
2745.000000	99.237372 
2744.000000	99.237213 
2743.000000	99.237564 
2742.000000	99.238301 
2741.000000	99.239048 
2740.000000	99.239594 
2739.000000	99.239980 
2738.000000	99.240345 
2737.000000	99.240821 
2736.000000	99.241475 
2735.000000	99.242208 
2734.000000	99.242729 
2733.000000	99.242789 
2732.000000	99.242439 
2731.000000	99.242002 
2730.000000	99.241786 
2729.000000	99.241879 
2728.000000	99.242237 
2727.000000	99.242830 
2726.000000	99.243607 
2725.000000	99.244413 
2724.000000	99.245041 
2723.000000	99.245410 
2722.000000	99.245635 
2721.000000	99.245907 
2720.000000	99.246305 
2719.000000	99.246743 
2718.000000	99.247096 
2717.000000	99.247331 
2716.000000	99.247540 
2715.000000	99.247860 
2714.000000	99.248383 
2713.000000	99.249076 
2712.000000	99.249734 
2711.000000	99.250106 
2710.000000	99.250138 
2709.000000	99.250051 
2708.000000	99.250157 
2707.000000	99.250523 
2706.000000	99.250899 
2705.000000	99.251011 
2704.000000	99.250862 
2703.000000	99.250697 
2702.000000	99.250714 
2701.000000	99.250891 
2700.000000	99.251066 
2699.000000	99.251113 
2698.000000	99.251029 
2697.000000	99.250915 
2696.000000	99.250884 
2695.000000	99.250982 
2694.000000	99.251205 
2693.000000	99.251523 
2692.000000	99.251842 
2691.000000	99.251973 
2690.000000	99.251789 
2689.000000	99.251448 
2688.000000	99.251349 
2687.000000	99.251747 
2686.000000	99.252460 
2685.000000	99.253017 
2684.000000	99.253130 
2683.000000	99.252935 
2682.000000	99.252813 
2681.000000	99.253014 
2680.000000	99.253427 
2679.000000	99.253670 
2678.000000	99.253420 
2677.000000	99.252710 
2676.000000	99.251915 
2675.000000	99.251380 
2674.000000	99.251143 
2673.000000	99.251031 
2672.000000	99.250875 
2671.000000	99.250556 
2670.000000	99.249929 
2669.000000	99.248879 
2668.000000	99.247495 
2667.000000	99.246164 
2666.000000	99.245452 
2665.000000	99.245797 
2664.000000	99.247156 
2663.000000	99.248943 
2662.000000	99.250514 
2661.000000	99.251713 
2660.000000	99.252732 
2659.000000	99.253452 
2658.000000	99.253361 
2657.000000	99.252283 
2656.000000	99.250883 
2655.000000	99.250147 
2654.000000	99.250418 
2653.000000	99.251235 
2652.000000	99.251894 
2651.000000	99.251973 
2650.000000	99.251449 
2649.000000	99.250577 
2648.000000	99.249632 
2647.000000	99.248638 
2646.000000	99.247516 
2645.000000	99.246564 
2644.000000	99.246383 
2643.000000	99.247047 
2642.000000	99.247749 
2641.000000	99.247661 
2640.000000	99.246935 
2639.000000	99.246429 
2638.000000	99.246680 
2637.000000	99.247508 
2636.000000	99.248348 
2635.000000	99.248647 
2634.000000	99.248133 
2633.000000	99.247128 
2632.000000	99.246430 
2631.000000	99.246533 
2630.000000	99.247212 
2629.000000	99.248017 
2628.000000	99.248916 
2627.000000	99.250074 
2626.000000	99.251303 
2625.000000	99.252165 
2624.000000	99.252533 
2623.000000	99.252643 
2622.000000	99.252714 
2621.000000	99.252788 
2620.000000	99.252912 
2619.000000	99.253163 
2618.000000	99.253442 
2617.000000	99.253491 
2616.000000	99.253207 
2615.000000	99.252772 
2614.000000	99.252429 
2613.000000	99.252234 
2612.000000	99.252087 
2611.000000	99.251930 
2610.000000	99.251806 
2609.000000	99.251769 
2608.000000	99.251800 
2607.000000	99.251825 
2606.000000	99.251806 
2605.000000	99.251790 
2604.000000	99.251818 
2603.000000	99.251847 
2602.000000	99.251789 
2601.000000	99.251632 
2600.000000	99.251455 
2599.000000	99.251341 
2598.000000	99.251297 
2597.000000	99.251277 
2596.000000	99.251217 
2595.000000	99.251073 
2594.000000	99.250846 
2593.000000	99.250568 
2592.000000	99.250294 
2591.000000	99.250060 
2590.000000	99.249865 
2589.000000	99.249688 
2588.000000	99.249494 
2587.000000	99.249262 
2586.000000	99.248987 
2585.000000	99.248673 
2584.000000	99.248330 
2583.000000	99.247973 
2582.000000	99.247631 
2581.000000	99.247331 
2580.000000	99.247088 
2579.000000	99.246892 
2578.000000	99.246712 
2577.000000	99.246527 
2576.000000	99.246340 
2575.000000	99.246168 
2574.000000	99.246025 
2573.000000	99.245904 
2572.000000	99.245779 
2571.000000	99.245632 
2570.000000	99.245459 
2569.000000	99.245271 
2568.000000	99.245097 
2567.000000	99.244986 
2566.000000	99.244987 
2565.000000	99.245106 
2564.000000	99.245281 
2563.000000	99.245404 
2562.000000	99.245379 
2561.000000	99.245169 
2560.000000	99.244847 
2559.000000	99.244583 
2558.000000	99.244518 
2557.000000	99.244638 
2556.000000	99.244759 
2555.000000	99.244734 
2554.000000	99.244667 
2553.000000	99.244817 
2552.000000	99.245280 
2551.000000	99.245814 
2550.000000	99.246101 
2549.000000	99.246097 
2548.000000	99.246002 
2547.000000	99.245909 
2546.000000	99.245724 
2545.000000	99.245478 
2544.000000	99.245481 
2543.000000	99.246011 
2542.000000	99.246984 
2541.000000	99.248002 
2540.000000	99.248713 
2539.000000	99.248985 
2538.000000	99.248782 
2537.000000	99.248108 
2536.000000	99.247063 
2535.000000	99.245893 
2534.000000	99.244970 
2533.000000	99.244710 
2532.000000	99.245349 
2531.000000	99.246668 
2530.000000	99.248018 
2529.000000	99.248871 
2528.000000	99.249278 
2527.000000	99.249634 
2526.000000	99.250090 
2525.000000	99.250418 
2524.000000	99.250472 
2523.000000	99.250472 
2522.000000	99.250670 
2521.000000	99.250962 
2520.000000	99.250999 
2519.000000	99.250577 
2518.000000	99.249899 
2517.000000	99.249488 
2516.000000	99.249718 
2515.000000	99.250358 
2514.000000	99.250806 
2513.000000	99.250886 
2512.000000	99.250993 
2511.000000	99.251230 
2510.000000	99.250978 
2509.000000	99.249942 
2508.000000	99.249125 
2507.000000	99.249879 
2506.000000	99.252151 
2505.000000	99.254436 
2504.000000	99.255482 
2503.000000	99.255238 
2502.000000	99.254182 
2501.000000	99.252643 
2500.000000	99.251095 
2499.000000	99.250268 
2498.000000	99.250464 
2497.000000	99.251215 
2496.000000	99.251886 
2495.000000	99.252228 
2494.000000	99.252077 
2493.000000	99.250983 
2492.000000	99.248557 
2491.000000	99.245018 
2490.000000	99.241208 
2489.000000	99.238111 
2488.000000	99.236361 
2487.000000	99.236066 
2486.000000	99.237025 
2485.000000	99.239153 
2484.000000	99.242538 
2483.000000	99.246798 
2482.000000	99.250669 
2481.000000	99.252805 
2480.000000	99.252946 
2479.000000	99.251922 
2478.000000	99.250628 
2477.000000	99.249343 
2476.000000	99.248064 
2475.000000	99.247039 
2474.000000	99.246672 
2473.000000	99.247129 
2472.000000	99.248166 
2471.000000	99.249268 
2470.000000	99.249913 
2469.000000	99.249824 
2468.000000	99.248990 
2467.000000	99.247512 
2466.000000	99.245676 
2465.000000	99.244222 
2464.000000	99.244040 
2463.000000	99.245272 
2462.000000	99.246900 
2461.000000	99.247625 
2460.000000	99.247195 
2459.000000	99.246440 
2458.000000	99.246212 
2457.000000	99.246564 
2456.000000	99.247000 
2455.000000	99.247099 
2454.000000	99.246756 
2453.000000	99.246055 
2452.000000	99.245163 
2451.000000	99.244296 
2450.000000	99.243640 
2449.000000	99.243281 
2448.000000	99.243196 
2447.000000	99.243283 
2446.000000	99.243452 
2445.000000	99.243696 
2444.000000	99.244055 
2443.000000	99.244477 
2442.000000	99.244778 
2441.000000	99.244790 
2440.000000	99.244488 
2439.000000	99.243925 
2438.000000	99.243154 
2437.000000	99.242349 
2436.000000	99.241836 
2435.000000	99.241776 
2434.000000	99.241831 
2433.000000	99.241452 
2432.000000	99.240575 
2431.000000	99.239767 
2430.000000	99.239559 
2429.000000	99.239930 
2428.000000	99.240607 
2427.000000	99.241515 
2426.000000	99.242679 
2425.000000	99.243822 
2424.000000	99.244391 
2423.000000	99.244050 
2422.000000	99.243003 
2421.000000	99.241944 
2420.000000	99.241541 
2419.000000	99.241916 
2418.000000	99.242674 
2417.000000	99.243295 
2416.000000	99.243592 
2415.000000	99.243689 
2414.000000	99.243709 
2413.000000	99.243693 
2412.000000	99.243737 
2411.000000	99.243943 
2410.000000	99.244180 
2409.000000	99.244134 
2408.000000	99.243767 
2407.000000	99.243476 
2406.000000	99.243649 
2405.000000	99.244177 
2404.000000	99.244554 
2403.000000	99.244378 
2402.000000	99.243632 
2401.000000	99.242570 
2400.000000	99.241526 
2399.000000	99.240786 
2398.000000	99.240497 
2397.000000	99.240624 
2396.000000	99.240996 
2395.000000	99.241442 
2394.000000	99.241856 
2393.000000	99.242159 
2392.000000	99.242277 
2391.000000	99.242222 
2390.000000	99.242145 
2389.000000	99.242224 
2388.000000	99.242491 
2387.000000	99.242799 
2386.000000	99.242966 
2385.000000	99.242919 
2384.000000	99.242715 
2383.000000	99.242439 
2382.000000	99.242153 
2381.000000	99.241896 
2380.000000	99.241676 
2379.000000	99.241442 
2378.000000	99.241138 
2377.000000	99.240794 
2376.000000	99.240521 
2375.000000	99.240380 
2374.000000	99.240325 
2373.000000	99.240273 
2372.000000	99.240184 
2371.000000	99.240074 
2370.000000	99.239959 
2369.000000	99.239836 
2368.000000	99.239702 
2367.000000	99.239554 
2366.000000	99.239394 
2365.000000	99.239234 
2364.000000	99.239088 
2363.000000	99.238967 
2362.000000	99.238872 
2361.000000	99.238797 
2360.000000	99.238736 
2359.000000	99.238686 
2358.000000	99.238642 
2357.000000	99.238597 
2356.000000	99.238541 
2355.000000	99.238466 
2354.000000	99.238369 
2353.000000	99.238254 
2352.000000	99.238132 
2351.000000	99.238018 
2350.000000	99.237922 
2349.000000	99.237844 
2348.000000	99.237775 
2347.000000	99.237707 
2346.000000	99.237631 
2345.000000	99.237542 
2344.000000	99.237445 
2343.000000	99.237350 
2342.000000	99.237266 
2341.000000	99.237197 
2340.000000	99.237137 
2339.000000	99.237076 
2338.000000	99.237008 
2337.000000	99.236932 
2336.000000	99.236850 
2335.000000	99.236769 
2334.000000	99.236691 
2333.000000	99.236613 
2332.000000	99.236517 
2331.000000	99.236375 
2330.000000	99.236167 
2329.000000	99.235894 
2328.000000	99.235612 
2327.000000	99.235395 
2326.000000	99.235276 
2325.000000	99.235211 
2324.000000	99.235125 
2323.000000	99.235015 
2322.000000	99.234941 
2321.000000	99.234943 
2320.000000	99.234955 
2319.000000	99.234865 
2318.000000	99.234587 
2317.000000	99.234109 
2316.000000	99.233510 
2315.000000	99.232899 
2314.000000	99.232346 
2313.000000	99.231860 
2312.000000	99.231437 
2311.000000	99.231102 
2310.000000	99.230871 
2309.000000	99.230683 
2308.000000	99.230380 
2307.000000	99.229802 
2306.000000	99.228963 
2305.000000	99.228015 
2304.000000	99.227120 
2303.000000	99.226344 
2302.000000	99.225671 
2301.000000	99.225068 
2300.000000	99.224508 
2299.000000	99.223945 
2298.000000	99.223339 
2297.000000	99.222695 
2296.000000	99.222054 
2295.000000	99.221434 
2294.000000	99.220811 
2293.000000	99.220151 
2292.000000	99.219443 
2291.000000	99.218709 
2290.000000	99.217977 
2289.000000	99.217260 
2288.000000	99.216553 
2287.000000	99.215849 
2286.000000	99.215142 
2285.000000	99.214425 
2284.000000	99.213689 
2283.000000	99.212926 
2282.000000	99.212138 
2281.000000	99.211323 
2280.000000	99.210487 
2279.000000	99.209641 
2278.000000	99.208801 
2277.000000	99.207973 
2276.000000	99.207156 
2275.000000	99.206338 
2274.000000	99.205509 
2273.000000	99.204653 
2272.000000	99.203745 
2271.000000	99.202739 
2270.000000	99.201600 
2269.000000	99.200409 
2268.000000	99.199379 
2267.000000	99.198681 
2266.000000	99.198266 
2265.000000	99.197865 
2264.000000	99.197294 
2263.000000	99.196549 
2262.000000	99.195759 
2261.000000	99.195130 
2260.000000	99.194850 
2259.000000	99.194773 
2258.000000	99.194294 
2257.000000	99.192916 
2256.000000	99.190862 
2255.000000	99.188939 
2254.000000	99.187574 
2253.000000	99.186480 
2252.000000	99.185360 
2251.000000	99.184461 
2250.000000	99.184154 
2249.000000	99.184383 
2248.000000	99.184822 
2247.000000	99.185237 
2246.000000	99.185354 
2245.000000	99.184687 
2244.000000	99.182943 
2243.000000	99.180582 
2242.000000	99.178619 
2241.000000	99.177767 
2240.000000	99.177825 
2239.000000	99.177777 
2238.000000	99.176552 
2237.000000	99.173847 
2236.000000	99.170276 
2235.000000	99.166664 
2234.000000	99.163479 
2233.000000	99.161177 
2232.000000	99.160575 
2231.000000	99.162171 
2230.000000	99.165305 
2229.000000	99.168638 
2228.000000	99.171442 
2227.000000	99.173634 
2226.000000	99.174726 
2225.000000	99.173745 
2224.000000	99.170397 
2223.000000	99.165590 
2222.000000	99.160808 
2221.000000	99.157422 
2220.000000	99.156323 
2219.000000	99.157463 
2218.000000	99.159612 
2217.000000	99.161317 
2216.000000	99.162266 
2215.000000	99.163023 
2214.000000	99.163554 
2213.000000	99.162953 
2212.000000	99.160846 
2211.000000	99.158324 
2210.000000	99.157180 
2209.000000	99.158561 
2208.000000	99.162232 
2207.000000	99.166366 
2206.000000	99.168299 
2205.000000	99.166318 
2204.000000	99.160877 
2203.000000	99.154010 
2202.000000	99.147743 
2201.000000	99.143320 
2200.000000	99.141148 
2199.000000	99.140305 
2198.000000	99.138687 
2197.000000	99.135263 
2196.000000	99.131974 
2195.000000	99.131755 
2194.000000	99.134951 
2193.000000	99.139166 
2192.000000	99.142125 
2191.000000	99.143143 
2190.000000	99.142233 
2189.000000	99.140016 
2188.000000	99.138460 
2187.000000	99.139459 
2186.000000	99.142429 
2185.000000	99.145090 
2184.000000	99.146724 
2183.000000	99.148456 
2182.000000	99.150182 
2181.000000	99.150189 
2180.000000	99.148530 
2179.000000	99.147701 
2178.000000	99.148781 
2177.000000	99.149529 
2176.000000	99.147913 
2175.000000	99.145086 
2174.000000	99.143169 
2173.000000	99.142034 
2172.000000	99.140112 
2171.000000	99.136982 
2170.000000	99.133703 
2169.000000	99.131650 
2168.000000	99.131818 
2167.000000	99.134090 
2166.000000	99.136442 
2165.000000	99.136489 
2164.000000	99.134683 
2163.000000	99.134098 
2162.000000	99.136272 
2161.000000	99.139236 
2160.000000	99.140592 
2159.000000	99.140469 
2158.000000	99.140195 
2157.000000	99.140384 
2156.000000	99.141717 
2155.000000	99.145219 
2154.000000	99.150299 
2153.000000	99.154312 
2152.000000	99.155463 
2151.000000	99.154934 
2150.000000	99.155337 
2149.000000	99.157978 
2148.000000	99.162301 
2147.000000	99.166813 
2146.000000	99.169728 
2145.000000	99.169826 
2144.000000	99.167770 
2143.000000	99.166039 
2142.000000	99.166430 
2141.000000	99.168265 
2140.000000	99.169784 
2139.000000	99.170366 
2138.000000	99.170476 
2137.000000	99.170265 
2136.000000	99.169537 
2135.000000	99.168834 
2134.000000	99.169240 
2133.000000	99.170948 
2132.000000	99.172752 
2131.000000	99.173153 
2130.000000	99.171615 
2129.000000	99.168852 
2128.000000	99.166331 
2127.000000	99.165192 
2126.000000	99.165431 
2125.000000	99.166185 
2124.000000	99.166890 
2123.000000	99.167905 
2122.000000	99.169621 
2121.000000	99.171391 
2120.000000	99.172021 
2119.000000	99.171189 
2118.000000	99.169790 
2117.000000	99.168908 
2116.000000	99.168681 
2115.000000	99.168477 
2114.000000	99.167808 
2113.000000	99.166762 
2112.000000	99.165705 
2111.000000	99.164820 
2110.000000	99.163983 
2109.000000	99.163041 
2108.000000	99.162088 
2107.000000	99.161371 
2106.000000	99.160897 
2105.000000	99.160246 
2104.000000	99.158945 
2103.000000	99.156986 
2102.000000	99.154951 
2101.000000	99.153557 
2100.000000	99.153090 
2099.000000	99.153256 
2098.000000	99.153465 
2097.000000	99.153429 
2096.000000	99.153334 
2095.000000	99.153374 
2094.000000	99.153148 
2093.000000	99.151870 
2092.000000	99.149411 
2091.000000	99.146978 
2090.000000	99.146047 
2089.000000	99.146683 
2088.000000	99.147350 
2087.000000	99.146638 
2086.000000	99.144942 
2085.000000	99.143903 
2084.000000	99.144474 
2083.000000	99.145945 
2082.000000	99.146806 
2081.000000	99.146332 
2080.000000	99.145170 
2079.000000	99.144521 
2078.000000	99.144965 
2077.000000	99.146295 
2076.000000	99.148250 
2075.000000	99.150732 
2074.000000	99.152984 
2073.000000	99.153464 
2072.000000	99.151290 
2071.000000	99.147369 
2070.000000	99.143463 
2069.000000	99.140281 
2068.000000	99.137478 
2067.000000	99.135303 
2066.000000	99.134850 
2065.000000	99.136187 
2064.000000	99.137401 
2063.000000	99.136658 
2062.000000	99.134561 
2061.000000	99.133530 
2060.000000	99.135140 
2059.000000	99.138744 
2058.000000	99.142474 
2057.000000	99.144837 
2056.000000	99.145232 
2055.000000	99.143463 
2054.000000	99.139639 
2053.000000	99.134635 
2052.000000	99.129964 
2051.000000	99.126731 
2050.000000	99.124630 
2049.000000	99.122045 
2048.000000	99.117386 
2047.000000	99.110583 
2046.000000	99.103293 
2045.000000	99.097738 
2044.000000	99.095287 
2043.000000	99.095749 
2042.000000	99.097812 
2041.000000	99.100084 
2040.000000	99.101831 
2039.000000	99.102720 
2038.000000	99.102204 
2037.000000	99.099789 
2036.000000	99.095787 
2035.000000	99.091236 
2034.000000	99.086975 
2033.000000	99.083267 
2032.000000	99.080285 
2031.000000	99.078247 
2030.000000	99.077068 
2029.000000	99.076420 
2028.000000	99.076189 
2027.000000	99.076492 
2026.000000	99.077277 
2025.000000	99.078482 
2024.000000	99.080217 
2023.000000	99.082125 
2022.000000	99.082900 
2021.000000	99.081499 
2020.000000	99.078845 
2019.000000	99.077380 
2018.000000	99.078503 
2017.000000	99.081115 
2016.000000	99.082736 
2015.000000	99.081988 
2014.000000	99.079503 
2013.000000	99.077013 
2012.000000	99.075978 
2011.000000	99.076832 
2010.000000	99.079112 
2009.000000	99.082060 
2008.000000	99.084904 
2007.000000	99.086836 
2006.000000	99.087100 
2005.000000	99.085561 
2004.000000	99.083125 
2003.000000	99.081074 
2002.000000	99.079904 
2001.000000	99.079205 
2000.000000	99.078588 
1999.000000	99.078230 
1998.000000	99.078579 
1997.000000	99.080024 
1996.000000	99.082751 
1995.000000	99.086414 
1994.000000	99.089793 
1993.000000	99.091405 
1992.000000	99.090835 
1991.000000	99.089109 
1990.000000	99.087525 
1989.000000	99.086641 
1988.000000	99.086642 
1987.000000	99.087756 
1986.000000	99.089717 
1985.000000	99.091461 
1984.000000	99.092051 
1983.000000	99.091673 
1982.000000	99.091056 
1981.000000	99.090049 
1980.000000	99.087567 
1979.000000	99.083111 
1978.000000	99.078027 
1977.000000	99.074675 
1976.000000	99.074160 
1975.000000	99.075573 
1974.000000	99.077596 
1973.000000	99.080416 
1972.000000	99.085118 
1971.000000	99.091348 
1970.000000	99.096417 
1969.000000	99.097487 
1968.000000	99.094296 
1967.000000	99.089588 
1966.000000	99.086712 
1965.000000	99.086718 
1964.000000	99.088584 
1963.000000	99.091017 
1962.000000	99.093336 
1961.000000	99.095214 
1960.000000	99.096572 
1959.000000	99.097856 
1958.000000	99.099754 
1957.000000	99.102297 
1956.000000	99.104582 
1955.000000	99.105653 
1954.000000	99.105509 
1953.000000	99.105056 
1952.000000	99.104932 
1951.000000	99.104733 
1950.000000	99.103653 
1949.000000	99.101836 
1948.000000	99.100714 
1947.000000	99.101307 
1946.000000	99.102384 
1945.000000	99.101230 
1944.000000	99.096810 
1943.000000	99.091791 
1942.000000	99.090398 
1941.000000	99.094055 
1940.000000	99.100133 
1939.000000	99.104983 
1938.000000	99.107660 
1937.000000	99.110293 
1936.000000	99.115028 
1935.000000	99.121096 
1934.000000	99.125740 
1933.000000	99.127977 
1932.000000	99.130020 
1931.000000	99.134334 
1930.000000	99.139975 
1929.000000	99.143633 
1928.000000	99.144294 
1927.000000	99.144334 
1926.000000	99.146078 
1925.000000	99.148873 
1924.000000	99.150811 
1923.000000	99.151739 
1922.000000	99.152810 
1921.000000	99.154056 
1920.000000	99.153993 
1919.000000	99.151354 
1918.000000	99.146515 
1917.000000	99.141727 
1916.000000	99.139576 
1915.000000	99.140706 
1914.000000	99.143673 
1913.000000	99.146764 
1912.000000	99.149481 
1911.000000	99.152016 
1910.000000	99.153527 
1909.000000	99.152859 
1908.000000	99.150995 
1907.000000	99.150543 
1906.000000	99.152618 
1905.000000	99.155506 
1904.000000	99.157068 
1903.000000	99.157206 
1902.000000	99.156986 
1901.000000	99.157044 
1900.000000	99.157625 
1899.000000	99.159039 
1898.000000	99.161286 
1897.000000	99.163663 
1896.000000	99.165314 
1895.000000	99.166035 
1894.000000	99.166156 
1893.000000	99.166053 
1892.000000	99.166058 
1891.000000	99.166423 
1890.000000	99.166992 
1889.000000	99.167263 
1888.000000	99.167117 
1887.000000	99.167016 
1886.000000	99.167378 
1885.000000	99.168225 
1884.000000	99.169380 
1883.000000	99.170677 
1882.000000	99.171805 
1881.000000	99.172408 
1880.000000	99.172551 
1879.000000	99.172797 
1878.000000	99.173641 
1877.000000	99.174982 
1876.000000	99.176258 
1875.000000	99.177048 
1874.000000	99.177256 
1873.000000	99.176900 
1872.000000	99.176171 
1871.000000	99.175494 
1870.000000	99.175146 
1869.000000	99.174946 
1868.000000	99.174894 
1867.000000	99.175613 
1866.000000	99.177284 
1865.000000	99.178969 
1864.000000	99.179520 
1863.000000	99.178774 
1862.000000	99.177661 
1861.000000	99.177317 
1860.000000	99.178217 
1859.000000	99.180194 
1858.000000	99.182616 
1857.000000	99.184605 
1856.000000	99.185688 
1855.000000	99.186266 
1854.000000	99.187060 
1853.000000	99.188075 
1852.000000	99.188741 
1851.000000	99.188765 
1850.000000	99.188579 
1849.000000	99.188899 
1848.000000	99.189880 
1847.000000	99.190916 
1846.000000	99.191189 
1845.000000	99.190502 
1844.000000	99.189728 
1843.000000	99.190117 
1842.000000	99.191712 
1841.000000	99.193397 
1840.000000	99.194344 
1839.000000	99.194466 
1838.000000	99.194099 
1837.000000	99.193576 
1836.000000	99.193252 
1835.000000	99.193538 
1834.000000	99.194309 
1833.000000	99.194900 
1832.000000	99.194823 
1831.000000	99.194139 
1830.000000	99.193455 
1829.000000	99.193538 
1828.000000	99.194449 
1827.000000	99.195386 
1826.000000	99.195616 
1825.000000	99.194995 
1824.000000	99.193885 
1823.000000	99.192788 
1822.000000	99.191606 
1821.000000	99.190004 
1820.000000	99.188501 
1819.000000	99.188581 
1818.000000	99.191272 
1817.000000	99.195132 
1816.000000	99.197733 
1815.000000	99.199105 
1814.000000	99.201076 
1813.000000	99.204291 
1812.000000	99.207179 
1811.000000	99.208646 
1810.000000	99.209638 
1809.000000	99.210688 
1808.000000	99.211045 
1807.000000	99.210493 
1806.000000	99.209702 
1805.000000	99.208915 
1804.000000	99.208018 
1803.000000	99.207539 
1802.000000	99.207870 
1801.000000	99.208086 
1800.000000	99.206839 
1799.000000	99.204838 
1798.000000	99.204167 
1797.000000	99.205391 
1796.000000	99.207456 
1795.000000	99.209240 
1794.000000	99.210216 
1793.000000	99.210020 
1792.000000	99.208484 
1791.000000	99.206795 
1790.000000	99.206276 
1789.000000	99.206567 
1788.000000	99.206813 
1787.000000	99.206969 
1786.000000	99.207488 
1785.000000	99.208198 
1784.000000	99.208426 
1783.000000	99.207900 
1782.000000	99.206751 
1781.000000	99.205453 
1780.000000	99.204411 
1779.000000	99.203805 
1778.000000	99.203676 
1777.000000	99.203947 
1776.000000	99.204559 
1775.000000	99.205257 
1774.000000	99.205718 
1773.000000	99.205870 
1772.000000	99.205761 
1771.000000	99.205483 
1770.000000	99.205165 
1769.000000	99.204807 
1768.000000	99.204364 
1767.000000	99.203892 
1766.000000	99.203526 
1765.000000	99.203344 
1764.000000	99.203249 
1763.000000	99.203037 
1762.000000	99.202558 
1761.000000	99.201948 
1760.000000	99.201402 
1759.000000	99.201039 
1758.000000	99.201009 
1757.000000	99.201492 
1756.000000	99.202318 
1755.000000	99.202826 
1754.000000	99.202646 
1753.000000	99.202186 
1752.000000	99.202139 
1751.000000	99.202294 
1750.000000	99.201798 
1749.000000	99.200526 
1748.000000	99.199368 
1747.000000	99.199029 
1746.000000	99.199280 
1745.000000	99.199628 
1744.000000	99.199744 
1743.000000	99.199513 
1742.000000	99.199121 
1741.000000	99.198942 
1740.000000	99.199179 
1739.000000	99.199765 
1738.000000	99.200409 
1737.000000	99.200823 
1736.000000	99.201077 
1735.000000	99.201745 
1734.000000	99.202467 
1733.000000	99.202411 
1732.000000	99.201814 
1731.000000	99.201130 
1730.000000	99.200832 
1729.000000	99.201244 
1728.000000	99.202148 
1727.000000	99.202952 
1726.000000	99.203289 
1725.000000	99.203496 
1724.000000	99.203900 
1723.000000	99.204664 
1722.000000	99.205843 
1721.000000	99.207296 
1720.000000	99.208967 
1719.000000	99.211114 
1718.000000	99.213373 
1717.000000	99.213924 
1716.000000	99.212343 
1715.000000	99.210958 
1714.000000	99.211301 
1713.000000	99.212194 
1712.000000	99.212107 
1711.000000	99.211408 
1710.000000	99.211389 
1709.000000	99.212134 
1708.000000	99.212584 
1707.000000	99.212300 
1706.000000	99.212148 
1705.000000	99.212286 
1704.000000	99.211968 
1703.000000	99.211075 
1702.000000	99.210581 
1701.000000	99.211296 
1700.000000	99.211363 
1699.000000	99.210399 
1698.000000	99.210240 
1697.000000	99.210637 
1696.000000	99.210773 
1695.000000	99.210733 
1694.000000	99.210927 
1693.000000	99.211192 
1692.000000	99.211466 
1691.000000	99.212437 
1690.000000	99.214100 
1689.000000	99.215671 
1688.000000	99.216885 
1687.000000	99.217926 
1686.000000	99.219344 
1685.000000	99.220991 
1684.000000	99.221058 
1683.000000	99.219814 
1682.000000	99.218736 
1681.000000	99.217993 
1680.000000	99.218038 
1679.000000	99.218776 
1678.000000	99.219265 
1677.000000	99.219170 
1676.000000	99.219176 
1675.000000	99.219695 
1674.000000	99.220227 
1673.000000	99.220564 
1672.000000	99.220853 
1671.000000	99.221278 
1670.000000	99.221377 
1669.000000	99.220703 
1668.000000	99.220000 
1667.000000	99.219787 
1666.000000	99.219772 
1665.000000	99.219700 
1664.000000	99.219648 
1663.000000	99.219792 
1662.000000	99.219928 
1661.000000	99.220008 
1660.000000	99.220399 
1659.000000	99.221188 
1658.000000	99.221964 
1657.000000	99.222298 
1656.000000	99.222236 
1655.000000	99.222042 
1654.000000	99.222192 
1653.000000	99.222421 
1652.000000	99.222789 
1651.000000	99.223466 
1650.000000	99.223847 
1649.000000	99.223949 
1648.000000	99.224099 
1647.000000	99.224150 
1646.000000	99.223965 
1645.000000	99.223827 
1644.000000	99.223956 
1643.000000	99.224407 
1642.000000	99.225090 
1641.000000	99.225764 
1640.000000	99.226227 
1639.000000	99.226426 
1638.000000	99.226448 
1637.000000	99.226523 
1636.000000	99.226795 
1635.000000	99.227087 
1634.000000	99.227349 
1633.000000	99.227401 
1632.000000	99.227101 
1631.000000	99.226764 
1630.000000	99.226553 
1629.000000	99.226405 
1628.000000	99.226438 
1627.000000	99.226835 
1626.000000	99.227287 
1625.000000	99.227418 
1624.000000	99.227481 
1623.000000	99.227936 
1622.000000	99.228650 
1621.000000	99.229278 
1620.000000	99.229926 
1619.000000	99.230847 
1618.000000	99.231995 
1617.000000	99.232656 
1616.000000	99.232901 
1615.000000	99.233653 
1614.000000	99.234786 
1613.000000	99.235803 
1612.000000	99.236977 
1611.000000	99.238330 
1610.000000	99.238814 
1609.000000	99.237877 
1608.000000	99.236706 
1607.000000	99.236589 
1606.000000	99.237018 
1605.000000	99.237215 
1604.000000	99.237559 
1603.000000	99.238340 
1602.000000	99.239039 
1601.000000	99.239497 
1600.000000	99.240346 
1599.000000	99.241729 
1598.000000	99.242885 
1597.000000	99.243389 
1596.000000	99.243618 
1595.000000	99.243894 
1594.000000	99.243999 
1593.000000	99.243991 
1592.000000	99.244562 
1591.000000	99.246009 
1590.000000	99.247592 
1589.000000	99.248510 
1588.000000	99.248938 
1587.000000	99.249456 
1586.000000	99.250003 
1585.000000	99.250203 
1584.000000	99.250374 
1583.000000	99.250871 
1582.000000	99.251338 
1581.000000	99.251413 
1580.000000	99.251313 
1579.000000	99.251284 
1578.000000	99.251270 
1577.000000	99.251183 
1576.000000	99.251025 
1575.000000	99.250894 
1574.000000	99.250728 
1573.000000	99.250517 
1572.000000	99.250424 
1571.000000	99.250537 
1570.000000	99.250636 
1569.000000	99.250578 
1568.000000	99.250553 
1567.000000	99.250606 
1566.000000	99.250636 
1565.000000	99.250625 
1564.000000	99.250643 
1563.000000	99.250679 
1562.000000	99.250716 
1561.000000	99.250763 
1560.000000	99.251018 
1559.000000	99.251195 
1558.000000	99.250980 
1557.000000	99.250755 
1556.000000	99.250718 
1555.000000	99.250816 
1554.000000	99.250936 
1553.000000	99.250914 
1552.000000	99.250727 
1551.000000	99.250441 
1550.000000	99.250272 
1549.000000	99.250349 
1548.000000	99.250612 
1547.000000	99.250850 
1546.000000	99.250845 
1545.000000	99.250544 
1544.000000	99.250162 
1543.000000	99.250100 
1542.000000	99.250680 
1541.000000	99.251765 
1540.000000	99.252559 
1539.000000	99.252837 
1538.000000	99.252951 
1537.000000	99.252838 
1536.000000	99.252549 
1535.000000	99.252507 
1534.000000	99.252552 
1533.000000	99.252041 
1532.000000	99.251102 
1531.000000	99.250586 
1530.000000	99.250850 
1529.000000	99.251424 
1528.000000	99.251680 
1527.000000	99.251694 
1526.000000	99.251976 
1525.000000	99.252588 
1524.000000	99.253179 
1523.000000	99.253888 
1522.000000	99.254904 
1521.000000	99.255125 
1520.000000	99.253699 
1519.000000	99.251084 
1518.000000	99.248249 
1517.000000	99.246103 
1516.000000	99.244794 
1515.000000	99.243927 
1514.000000	99.243245 
1513.000000	99.242993 
1512.000000	99.243044 
1511.000000	99.242639 
1510.000000	99.241472 
1509.000000	99.239930 
1508.000000	99.239096 
1507.000000	99.239464 
1506.000000	99.240589 
1505.000000	99.241176 
1504.000000	99.240486 
1503.000000	99.239134 
1502.000000	99.238067 
1501.000000	99.237389 
1500.000000	99.236413 
1499.000000	99.234720 
1498.000000	99.233022 
1497.000000	99.231980 
1496.000000	99.231058 
1495.000000	99.230309 
1494.000000	99.230580 
1493.000000	99.231969 
1492.000000	99.233584 
1491.000000	99.234225 
1490.000000	99.233152 
1489.000000	99.230540 
1488.000000	99.227206 
1487.000000	99.224629 
1486.000000	99.223276 
1485.000000	99.221696 
1484.000000	99.219136 
1483.000000	99.216359 
1482.000000	99.214756 
1481.000000	99.214510 
1480.000000	99.214429 
1479.000000	99.213846 
1478.000000	99.213163 
1477.000000	99.212351 
1476.000000	99.210640 
1475.000000	99.208794 
1474.000000	99.208311 
1473.000000	99.208371 
1472.000000	99.206400 
1471.000000	99.202893 
1470.000000	99.200288 
1469.000000	99.198659 
1468.000000	99.196792 
1467.000000	99.194790 
1466.000000	99.193840 
1465.000000	99.194052 
1464.000000	99.194245 
1463.000000	99.193510 
1462.000000	99.192216 
1461.000000	99.190412 
1460.000000	99.187619 
1459.000000	99.182947 
1458.000000	99.176377 
1457.000000	99.168249 
1456.000000	99.160315 
1455.000000	99.154229 
1454.000000	99.150153 
1453.000000	99.149644 
1452.000000	99.153139 
1451.000000	99.158147 
1450.000000	99.162631 
1449.000000	99.166256 
1448.000000	99.168123 
1447.000000	99.167887 
1446.000000	99.166713 
1445.000000	99.167094 
1444.000000	99.170001 
1443.000000	99.173737 
1442.000000	99.176865 
1441.000000	99.179243 
1440.000000	99.180730 
1439.000000	99.180565 
1438.000000	99.180777 
1437.000000	99.183492 
1436.000000	99.186000 
1435.000000	99.184785 
1434.000000	99.180884 
1433.000000	99.176707 
1432.000000	99.172899 
1431.000000	99.167977 
1430.000000	99.161747 
1429.000000	99.156637 
1428.000000	99.153674 
1427.000000	99.151731 
1426.000000	99.149335 
1425.000000	99.147287 
1424.000000	99.145989 
1423.000000	99.142802 
1422.000000	99.135895 
1421.000000	99.126411 
1420.000000	99.116393 
1419.000000	99.105945 
1418.000000	99.096245 
1417.000000	99.088836 
1416.000000	99.081744 
1415.000000	99.072621 
1414.000000	99.061794 
1413.000000	99.051699 
1412.000000	99.044074 
1411.000000	99.038053 
1410.000000	99.032415 
1409.000000	99.027231 
1408.000000	99.022845 
1407.000000	99.019818 
1406.000000	99.018820 
1405.000000	99.020811 
1404.000000	99.025864 
1403.000000	99.032345 
1402.000000	99.039071 
1401.000000	99.046250 
1400.000000	99.053803 
1399.000000	99.059284 
1398.000000	99.059256 
1397.000000	99.051671 
1396.000000	99.037150 
1395.000000	99.021443 
1394.000000	99.014131 
1393.000000	99.020290 
1392.000000	99.035608 
1391.000000	99.051237 
1390.000000	99.061404 
1389.000000	99.065532 
1388.000000	99.065478 
1387.000000	99.062891 
1386.000000	99.059287 
1385.000000	99.056542 
1384.000000	99.055704 
1383.000000	99.056012 
1382.000000	99.056232 
1381.000000	99.056412 
1380.000000	99.058003 
1379.000000	99.062039 
1378.000000	99.067926 
1377.000000	99.074394 
1376.000000	99.080763 
1375.000000	99.086743 
1374.000000	99.092071 
1373.000000	99.097306 
1372.000000	99.103378 
1371.000000	99.110292 
1370.000000	99.116963 
1369.000000	99.122782 
1368.000000	99.128208 
1367.000000	99.133594 
1366.000000	99.138781 
1365.000000	99.143783 
1364.000000	99.149008 
1363.000000	99.154334 
1362.000000	99.158821 
1361.000000	99.162012 
1360.000000	99.164821 
1359.000000	99.168713 
1358.000000	99.174482 
1357.000000	99.181838 
1356.000000	99.189519 
1355.000000	99.195809 
1354.000000	99.199980 
1353.000000	99.203010 
1352.000000	99.206013 
1351.000000	99.208873 
1350.000000	99.210604 
1349.000000	99.212043 
1348.000000	99.214997 
1347.000000	99.219054 
1346.000000	99.221918 
1345.000000	99.222687 
1344.000000	99.222729 
1343.000000	99.223077 
1342.000000	99.223368 
1341.000000	99.223827 
1340.000000	99.225905 
1339.000000	99.229730 
1338.000000	99.233396 
1337.000000	99.235994 
1336.000000	99.238715 
1335.000000	99.242120 
1334.000000	99.244643 
1333.000000	99.244957 
1332.000000	99.244055 
1331.000000	99.243597 
1330.000000	99.243469 
1329.000000	99.242669 
1328.000000	99.241346 
1327.000000	99.240329 
1326.000000	99.239321 
1325.000000	99.237643 
1324.000000	99.235802 
1323.000000	99.235039 
1322.000000	99.236060 
1321.000000	99.238801 
1320.000000	99.242783 
1319.000000	99.246936 
1318.000000	99.249756 
1317.000000	99.250262 
1316.000000	99.248584 
1315.000000	99.245657 
1314.000000	99.242821 
1313.000000	99.241357 
1312.000000	99.241535 
1311.000000	99.242138 
1310.000000	99.241793 
1309.000000	99.240726 
1308.000000	99.240254 
1307.000000	99.240754 
1306.000000	99.241031 
1305.000000	99.240310 
1304.000000	99.239456 
1303.000000	99.239697 
1302.000000	99.241156 
1301.000000	99.242979 
1300.000000	99.244254 
1299.000000	99.244546 
1298.000000	99.244311 
1297.000000	99.244718 
1296.000000	99.246278 
1295.000000	99.247621 
1294.000000	99.246760 
1293.000000	99.243534 
1292.000000	99.239712 
1291.000000	99.236867 
1290.000000	99.235326 
1289.000000	99.235073 
1288.000000	99.235942 
1287.000000	99.236632 
1286.000000	99.235334 
1285.000000	99.231894 
1284.000000	99.227946 
1283.000000	99.224714 
1282.000000	99.221825 
1281.000000	99.218618 
1280.000000	99.215361 
1279.000000	99.212315 
1278.000000	99.209019 
1277.000000	99.205444 
1276.000000	99.202566 
1275.000000	99.200673 
1274.000000	99.198124 
1273.000000	99.192970 
1272.000000	99.185175 
1271.000000	99.176479 
1270.000000	99.168646 
1269.000000	99.162549 
1268.000000	99.158269 
1267.000000	99.154973 
1266.000000	99.151138 
1265.000000	99.145825 
1264.000000	99.139549 
1263.000000	99.133314 
1262.000000	99.127195 
1261.000000	99.120612 
1260.000000	99.113779 
1259.000000	99.107843 
1258.000000	99.103570 
1257.000000	99.100613 
1256.000000	99.098277 
1255.000000	99.096448 
1254.000000	99.095471 
1253.000000	99.095387 
1252.000000	99.095709 
1251.000000	99.096010 
1250.000000	99.096580 
1249.000000	99.098321 
1248.000000	99.101817 
1247.000000	99.106376 
1246.000000	99.109899 
1245.000000	99.109760 
1244.000000	99.104516 
1243.000000	99.095841 
1242.000000	99.088739 
1241.000000	99.088074 
1240.000000	99.094272 
1239.000000	99.102690 
1238.000000	99.107826 
1237.000000	99.108188 
1236.000000	99.105993 
1235.000000	99.103433 
1234.000000	99.100800 
1233.000000	99.097832 
1232.000000	99.094827 
1231.000000	99.091865 
1230.000000	99.088589 
1229.000000	99.085658 
1228.000000	99.085090 
1227.000000	99.088020 
1226.000000	99.092872 
1225.000000	99.096783 
1224.000000	99.098553 
1223.000000	99.099369 
1222.000000	99.101029 
1221.000000	99.104306 
1220.000000	99.108867 
1219.000000	99.113989 
1218.000000	99.119137 
1217.000000	99.124094 
1216.000000	99.128640 
1215.000000	99.132354 
1214.000000	99.134973 
1213.000000	99.136702 
1212.000000	99.137780 
1211.000000	99.138182 
1210.000000	99.138369 
1209.000000	99.139764 
1208.000000	99.143419 
1207.000000	99.148399 
1206.000000	99.152581 
1205.000000	99.154949 
1204.000000	99.155962 
1203.000000	99.156025 
1202.000000	99.155255 
1201.000000	99.154748 
1200.000000	99.156054 
1199.000000	99.158841 
1198.000000	99.161013 
1197.000000	99.161793 
1196.000000	99.162357 
1195.000000	99.162873 
1194.000000	99.161623 
1193.000000	99.157954 
1192.000000	99.153908 
1191.000000	99.151517 
1190.000000	99.150005 
1189.000000	99.147531 
1188.000000	99.144362 
1187.000000	99.142434 
1186.000000	99.142580 
1185.000000	99.143804 
1184.000000	99.144866 
1183.000000	99.145183 
1182.000000	99.144512 
1181.000000	99.143038 
1180.000000	99.141599 
1179.000000	99.140833 
1178.000000	99.140216 
1177.000000	99.138780 
1176.000000	99.136512 
1175.000000	99.134151 
1174.000000	99.131733 
1173.000000	99.128382 
1172.000000	99.123712 
1171.000000	99.118681 
1170.000000	99.114675 
1169.000000	99.112119 
1168.000000	99.110249 
1167.000000	99.107995 
1166.000000	99.105047 
1165.000000	99.102165 
1164.000000	99.100449 
1163.000000	99.100296 
1162.000000	99.101149 
1161.000000	99.102290 
1160.000000	99.103653 
1159.000000	99.105550 
1158.000000	99.107631 
1157.000000	99.108332 
1156.000000	99.105712 
1155.000000	99.099373 
1154.000000	99.091852 
1153.000000	99.087317 
1152.000000	99.087792 
1151.000000	99.090900 
1150.000000	99.092147 
1149.000000	99.089500 
1148.000000	99.084750 
1147.000000	99.080640 
1146.000000	99.077815 
1145.000000	99.074939 
1144.000000	99.070507 
1143.000000	99.064034 
1142.000000	99.056623 
1141.000000	99.050881 
1140.000000	99.049089 
1139.000000	99.050602 
1138.000000	99.051843 
1137.000000	99.049701 
1136.000000	99.044253 
1135.000000	99.037750 
1134.000000	99.031741 
1133.000000	99.025822 
1132.000000	99.018635 
1131.000000	99.009544 
1130.000000	98.999924 
1129.000000	98.992813 
1128.000000	98.989978 
1127.000000	98.988966 
1126.000000	98.984774 
1125.000000	98.975474 
1124.000000	98.964654 
1123.000000	98.957070 
1122.000000	98.953062 
1121.000000	98.948864 
1120.000000	98.941315 
1119.000000	98.930367 
1118.000000	98.917760 
1117.000000	98.905289 
1116.000000	98.894368 
1115.000000	98.885646 
1114.000000	98.878559 
1113.000000	98.871932 
1112.000000	98.864845 
1111.000000	98.856154 
1110.000000	98.843830 
1109.000000	98.826552 
1108.000000	98.806287 
1107.000000	98.787857 
1106.000000	98.775068 
1105.000000	98.767472 
1104.000000	98.760926 
1103.000000	98.751516 
1102.000000	98.739330 
1101.000000	98.728242 
1100.000000	98.721184 
1099.000000	98.716754 
1098.000000	98.711289 
1097.000000	98.703815 
1096.000000	98.696703 
1095.000000	98.690963 
1094.000000	98.683438 
1093.000000	98.669917 
1092.000000	98.649153 
1091.000000	98.622723 
1090.000000	98.593104 
1089.000000	98.563379 
1088.000000	98.536817 
1087.000000	98.514336 
1086.000000	98.493436 
1085.000000	98.471580 
1084.000000	98.449395 
1083.000000	98.428553 
1082.000000	98.408025 
1081.000000	98.385228 
1080.000000	98.360102 
1079.000000	98.335398 
1078.000000	98.313510 
1077.000000	98.295665 
1076.000000	98.283593 
1075.000000	98.278857 
1074.000000	98.280343 
1073.000000	98.284733 
1072.000000	98.288877 
1071.000000	98.289058 
1070.000000	98.279311 
1069.000000	98.255515 
1068.000000	98.222929 
1067.000000	98.196148 
1066.000000	98.188141 
1065.000000	98.200339 
1064.000000	98.223578 
1063.000000	98.245864 
1062.000000	98.258243 
1061.000000	98.256172 
1060.000000	98.240007 
1059.000000	98.215982 
1058.000000	98.194330 
1057.000000	98.183275 
1056.000000	98.183806 
1055.000000	98.190161 
1054.000000	98.195534 
1053.000000	98.197632 
1052.000000	98.198682 
1051.000000	98.200789 
1050.000000	98.203000 
1049.000000	98.203426 
1048.000000	98.202498 
1047.000000	98.202878 
1046.000000	98.207187 
1045.000000	98.216438 
1044.000000	98.229303 
1043.000000	98.242325 
1042.000000	98.252471 
1041.000000	98.260351 
1040.000000	98.269488 
1039.000000	98.282141 
1038.000000	98.297935 
1037.000000	98.316889 
1036.000000	98.340495 
1035.000000	98.368117 
1034.000000	98.395211 
1033.000000	98.417396 
1032.000000	98.433698 
1031.000000	98.443802 
1030.000000	98.445963 
1029.000000	98.441745 
1028.000000	98.440160 
1027.000000	98.451131 
1026.000000	98.474610 
1025.000000	98.500377 
1024.000000	98.519024 
1023.000000	98.529406 
1022.000000	98.535440 
1021.000000	98.540348 
1020.000000	98.545989 
1019.000000	98.554115 
1018.000000	98.564845 
1017.000000	98.575727 
1016.000000	98.584786 
1015.000000	98.593183 
1014.000000	98.603086 
1013.000000	98.614197 
1012.000000	98.624199 
1011.000000	98.631908 
1010.000000	98.638498 
1009.000000	98.645965 
1008.000000	98.655444 
1007.000000	98.666840 
1006.000000	98.679209 
1005.000000	98.691398 
1004.000000	98.702696 
1003.000000	98.713135 
1002.000000	98.723509 
1001.000000	98.735211 
1000.000000	98.749234 
999.000000	 98.764462 
998.000000	 98.777671 
997.000000	 98.786790 
996.000000	 98.793977 
995.000000	 98.803836 
994.000000	 98.817839 
993.000000	 98.832255 
992.000000	 98.842725 
991.000000	 98.848879 
990.000000	 98.853132 
989.000000	 98.856612 
988.000000	 98.858533 
987.000000	 98.859221 
986.000000	 98.861230 
985.000000	 98.866557 
984.000000	 98.874083 
983.000000	 98.880730 
982.000000	 98.884759 
981.000000	 98.887272 
980.000000	 98.890489 
979.000000	 98.894923 
978.000000	 98.899124 
977.000000	 98.902358 
976.000000	 98.906275 
975.000000	 98.912721 
974.000000	 98.920726 
973.000000	 98.927681 
972.000000	 98.933455 
971.000000	 98.941035 
970.000000	 98.952216 
969.000000	 98.964671 
968.000000	 98.974836 
967.000000	 98.982307 
966.000000	 98.989563 
965.000000	 98.998231 
964.000000	 99.007448 
963.000000	 99.015662 
962.000000	 99.022384 
961.000000	 99.027939 
960.000000	 99.032729 
959.000000	 99.037049 
958.000000	 99.040727 
957.000000	 99.042683 
956.000000	 99.041690 
955.000000	 99.038061 
954.000000	 99.034227 
953.000000	 99.033197 
952.000000	 99.036418 
951.000000	 99.042888 
950.000000	 99.049792 
949.000000	 99.054232 
948.000000	 99.055049 
947.000000	 99.053326 
946.000000	 99.050967 
945.000000	 99.048996 
944.000000	 99.047868 
943.000000	 99.048997 
942.000000	 99.054360 
941.000000	 99.063779 
940.000000	 99.073651 
939.000000	 99.079890 
938.000000	 99.081947 
937.000000	 99.082653 
936.000000	 99.084268 
935.000000	 99.086266 
934.000000	 99.087470 
933.000000	 99.088450 
932.000000	 99.090331 
931.000000	 99.092401 
930.000000	 99.092683 
929.000000	 99.090304 
928.000000	 99.085499 
927.000000	 99.077815 
926.000000	 99.066611 
925.000000	 99.053841 
924.000000	 99.044201 
923.000000	 99.040967 
922.000000	 99.042703 
921.000000	 99.044907 
920.000000	 99.044192 
919.000000	 99.040128 
918.000000	 99.034167 
917.000000	 99.028375 
916.000000	 99.024881 
915.000000	 99.025253 
914.000000	 99.029908 
913.000000	 99.038004 
912.000000	 99.047442 
911.000000	 99.055338 
910.000000	 99.060254 
909.000000	 99.064548 
908.000000	 99.072584 
907.000000	 99.085145 
906.000000	 99.097104 
905.000000	 99.102585 
904.000000	 99.101158 
903.000000	 99.097181 
902.000000	 99.094168 
901.000000	 99.092030 
900.000000	 99.089434 
899.000000	 99.085913 
898.000000	 99.080770 
897.000000	 99.072251 
896.000000	 99.059414 
895.000000	 99.044076 
894.000000	 99.030023 
893.000000	 99.020586 
892.000000	 99.017248 
891.000000	 99.019634 
890.000000	 99.025925 
889.000000	 99.033676 
888.000000	 99.040905 
887.000000	 99.046856 
886.000000	 99.052237 
885.000000	 99.058660 
884.000000	 99.066803 
883.000000	 99.074670 
882.000000	 99.078985 
881.000000	 99.079512 
880.000000	 99.080808 
879.000000	 99.087963 
878.000000	 99.101173 
877.000000	 99.115733 
876.000000	 99.126457 
875.000000	 99.130448 
874.000000	 99.126927 
873.000000	 99.117628 
872.000000	 99.107306 
871.000000	 99.100942 
870.000000	 99.099570 
869.000000	 99.100879 
868.000000	 99.103848 
867.000000	 99.109729 
866.000000	 99.117740 
865.000000	 99.123246 
864.000000	 99.122978 
863.000000	 99.120201 
862.000000	 99.121690 
861.000000	 99.130193 
860.000000	 99.142469 
859.000000	 99.154243 
858.000000	 99.164458 
857.000000	 99.174062 
856.000000	 99.183323 
855.000000	 99.192342 
854.000000	 99.202499 
853.000000	 99.214718 
852.000000	 99.226729 
851.000000	 99.234677 
850.000000	 99.238029 
849.000000	 99.240623 
848.000000	 99.245596 
847.000000	 99.251276 
846.000000	 99.253978 
845.000000	 99.252964 
844.000000	 99.250153 
843.000000	 99.246379 
842.000000	 99.241091 
841.000000	 99.235119 
840.000000	 99.229920 
839.000000	 99.223751 
838.000000	 99.212762 
837.000000	 99.197298 
836.000000	 99.183338 
835.000000	 99.175134 
834.000000	 99.170019 
833.000000	 99.164256 
832.000000	 99.160871 
831.000000	 99.165852 
830.000000	 99.177323 
829.000000	 99.184718 
828.000000	 99.181373 
827.000000	 99.173524 
826.000000	 99.172883 
825.000000	 99.183037 
824.000000	 99.197373 
823.000000	 99.208781 
822.000000	 99.216862 
821.000000	 99.224988 
820.000000	 99.234489 
819.000000	 99.244015 
818.000000	 99.252667 
817.000000	 99.261241 
816.000000	 99.269879 
815.000000	 99.275599 
814.000000	 99.273838 
813.000000	 99.263015 
812.000000	 99.246832 
811.000000	 99.231336 
810.000000	 99.219693 
809.000000	 99.210505 
808.000000	 99.200786 
807.000000	 99.189025 
806.000000	 99.174965 
805.000000	 99.158163 
804.000000	 99.138961 
803.000000	 99.121021 
802.000000	 99.110500 
801.000000	 99.110472 
800.000000	 99.116588 
799.000000	 99.120433 
798.000000	 99.118769 
797.000000	 99.117292 
796.000000	 99.122838 
795.000000	 99.134035 
794.000000	 99.142940 
793.000000	 99.145008 
792.000000	 99.143539 
791.000000	 99.143759 
790.000000	 99.146550 
789.000000	 99.149602 
788.000000	 99.151317 
787.000000	 99.151030 
786.000000	 99.147699 
785.000000	 99.141010 
784.000000	 99.132582 
783.000000	 99.124528 
782.000000	 99.118142 
781.000000	 99.114729 
780.000000	 99.115075 
779.000000	 99.116432 
778.000000	 99.113105 
777.000000	 99.103050 
776.000000	 99.091704 
775.000000	 99.086266 
774.000000	 99.088092 
773.000000	 99.093639 
772.000000	 99.100917 
771.000000	 99.110810 
770.000000	 99.122842 
769.000000	 99.134095 
768.000000	 99.142819 
767.000000	 99.150055 
766.000000	 99.157223 
765.000000	 99.164586 
764.000000	 99.172474 
763.000000	 99.181518 
762.000000	 99.190639 
761.000000	 99.196737 
760.000000	 99.197733 
759.000000	 99.195281 
758.000000	 99.194097 
757.000000	 99.198127 
756.000000	 99.206474 
755.000000	 99.212793 
754.000000	 99.210330 
753.000000	 99.198821 
752.000000	 99.185680 
751.000000	 99.179105 
750.000000	 99.180409 
749.000000	 99.184449 
748.000000	 99.186062 
747.000000	 99.184324 
746.000000	 99.181326 
745.000000	 99.179239 
744.000000	 99.178928 
743.000000	 99.179865 
742.000000	 99.180846 
741.000000	 99.181596 
740.000000	 99.183596 
739.000000	 99.188480 
738.000000	 99.195770 
737.000000	 99.202855 
736.000000	 99.206905 
735.000000	 99.206544 
734.000000	 99.202759 
733.000000	 99.199103 
732.000000	 99.199799 
731.000000	 99.206340 
730.000000	 99.216357 
729.000000	 99.226210 
728.000000	 99.234112 
727.000000	 99.239738 
726.000000	 99.242300 
725.000000	 99.241166 
724.000000	 99.237704 
723.000000	 99.234357 
722.000000	 99.232150 
721.000000	 99.230937 
720.000000	 99.231550 
719.000000	 99.235352 
718.000000	 99.241459 
717.000000	 99.246386 
716.000000	 99.247132 
715.000000	 99.243268 
714.000000	 99.236602 
713.000000	 99.230078 
712.000000	 99.226747 
711.000000	 99.228088 
710.000000	 99.232428 
709.000000	 99.236196 
708.000000	 99.237268 
707.000000	 99.236041 
706.000000	 99.233287 
705.000000	 99.228984 
704.000000	 99.223785 
703.000000	 99.219933 
702.000000	 99.219408 
701.000000	 99.221638 
700.000000	 99.224107 
699.000000	 99.224808 
698.000000	 99.223877 
697.000000	 99.223357 
696.000000	 99.225574 
695.000000	 99.230806 
694.000000	 99.236274 
693.000000	 99.238798 
692.000000	 99.238838 
691.000000	 99.240176 
690.000000	 99.245245 
689.000000	 99.252642 
688.000000	 99.259470 
687.000000	 99.263712 
686.000000	 99.263578 
685.000000	 99.257795 
684.000000	 99.248271 
683.000000	 99.239795 
682.000000	 99.235471 
681.000000	 99.234690 
680.000000	 99.235816 
679.000000	 99.237294 
678.000000	 99.236225 
677.000000	 99.230529 
676.000000	 99.224302 
675.000000	 99.224764 
674.000000	 99.232414 
673.000000	 99.238944 
672.000000	 99.237187 
671.000000	 99.229566 
670.000000	 99.225125 
669.000000	 99.232262 
668.000000	 99.249735 
667.000000	 99.266338 
666.000000	 99.277110 
665.000000	 99.282754 
664.000000	 99.287640 
663.000000	 99.300412 
662.000000	 99.323077 
661.000000	 99.343237 
660.000000	 99.346487 
659.000000	 99.331388 
658.000000	 99.308586 
657.000000	 99.288013 
656.000000	 99.270862 
655.000000	 99.256260 
654.000000	 99.246908 
653.000000	 99.245190 
652.000000	 99.248905 
651.000000	 99.252975 
650.000000	 99.252515 

