4000.000000	100.102822 
3999.000000	100.101576 
3998.000000	100.099968 
3997.000000	100.099197 
3996.000000	100.098992 
3995.000000	100.098398 
3994.000000	100.097203 
3993.000000	100.096269 
3992.000000	100.096500 
3991.000000	100.097626 
3990.000000	100.098073 
3989.000000	100.096242 
3988.000000	100.092254 
3987.000000	100.088283 
3986.000000	100.086813 
3985.000000	100.088624 
3984.000000	100.092622 
3983.000000	100.097376 
3982.000000	100.102266 
3981.000000	100.107203 
3980.000000	100.111990 
3979.000000	100.116135 
3978.000000	100.118905 
3977.000000	100.119394 
3976.000000	100.116964 
3975.000000	100.111908 
3974.000000	100.105509 
3973.000000	100.099452 
3972.000000	100.095415 
3971.000000	100.094836 
3970.000000	100.098290 
3969.000000	100.104710 
3968.000000	100.111722 
3967.000000	100.117033 
3966.000000	100.119272 
3965.000000	100.118025 
3964.000000	100.114138 
3963.000000	100.110091 
3962.000000	100.108752 
3961.000000	100.110701 
3960.000000	100.113268 
3959.000000	100.112919 
3958.000000	100.108731 
3957.000000	100.103133 
3956.000000	100.099497 
3955.000000	100.099291 
3954.000000	100.101094 
3953.000000	100.102308 
3952.000000	100.101587 
3951.000000	100.099744 
3950.000000	100.098405 
3949.000000	100.098101 
3948.000000	100.098355 
3947.000000	100.099054 
3946.000000	100.100625 
3945.000000	100.102903 
3944.000000	100.104658 
3943.000000	100.104705 
3942.000000	100.102921 
3941.000000	100.100319 
3940.000000	100.098388 
3939.000000	100.098131 
3938.000000	100.099427 
3937.000000	100.101081 
3936.000000	100.101727 
3935.000000	100.101164 
3934.000000	100.100296 
3933.000000	100.100207 
3932.000000	100.101500 
3931.000000	100.104543 
3930.000000	100.109099 
3929.000000	100.113049 
3928.000000	100.113160 
3927.000000	100.108158 
3926.000000	100.100931 
3925.000000	100.096528 
3924.000000	100.097195 
3923.000000	100.100860 
3922.000000	100.104360 
3921.000000	100.105858 
3920.000000	100.104860 
3919.000000	100.101794 
3918.000000	100.098288 
3917.000000	100.096344 
3916.000000	100.096557 
3915.000000	100.097889 
3914.000000	100.099045 
3913.000000	100.098912 
3912.000000	100.096355 
3911.000000	100.090891 
3910.000000	100.084500 
3909.000000	100.081026 
3908.000000	100.083024 
3907.000000	100.090150 
3906.000000	100.099914 
3905.000000	100.110329 
3904.000000	100.120403 
3903.000000	100.128795 
3902.000000	100.133762 
3901.000000	100.134226 
3900.000000	100.130222 
3899.000000	100.122473 
3898.000000	100.111826 
3897.000000	100.100156 
3896.000000	100.090744 
3895.000000	100.086213 
3894.000000	100.087159 
3893.000000	100.092438 
3892.000000	100.100775 
3891.000000	100.111106 
3890.000000	100.121407 
3889.000000	100.129163 
3888.000000	100.132143 
3887.000000	100.129476 
3886.000000	100.122380 
3885.000000	100.113827 
3884.000000	100.107457 
3883.000000	100.106038 
3882.000000	100.109023 
3881.000000	100.112454 
3880.000000	100.112700 
3879.000000	100.110943 
3878.000000	100.110894 
3877.000000	100.113017 
3876.000000	100.113813 
3875.000000	100.111583 
3874.000000	100.108991 
3873.000000	100.108589 
3872.000000	100.109174 
3871.000000	100.108706 
3870.000000	100.107840 
3869.000000	100.107821 
3868.000000	100.109280 
3867.000000	100.112947 
3866.000000	100.118393 
3865.000000	100.122559 
3864.000000	100.122234 
3863.000000	100.118732 
3862.000000	100.116790 
3861.000000	100.116427 
3860.000000	100.112633 
3859.000000	100.102859 
3858.000000	100.090770 
3857.000000	100.082526 
3856.000000	100.081552 
3855.000000	100.087437 
3854.000000	100.099019 
3853.000000	100.111313 
3852.000000	100.118925 
3851.000000	100.123181 
3850.000000	100.127850 
3849.000000	100.132229 
3848.000000	100.133073 
3847.000000	100.128589 
3846.000000	100.121220 
3845.000000	100.115168 
3844.000000	100.112206 
3843.000000	100.111206 
3842.000000	100.110877 
3841.000000	100.111232 
3840.000000	100.113816 
3839.000000	100.119366 
3838.000000	100.125724 
3837.000000	100.129970 
3836.000000	100.130834 
3835.000000	100.128864 
3834.000000	100.125401 
3833.000000	100.121622 
3832.000000	100.118423 
3831.000000	100.116131 
3830.000000	100.114453 
3829.000000	100.112663 
3828.000000	100.109828 
3827.000000	100.106167 
3826.000000	100.104193 
3825.000000	100.106471 
3824.000000	100.113073 
3823.000000	100.120661 
3822.000000	100.125482 
3821.000000	100.127221 
3820.000000	100.127938 
3819.000000	100.129762 
3818.000000	100.132649 
3817.000000	100.133936 
3816.000000	100.130983 
3815.000000	100.124349 
3814.000000	100.118050 
3813.000000	100.115318 
3812.000000	100.115182 
3811.000000	100.113762 
3810.000000	100.109028 
3809.000000	100.103275 
3808.000000	100.101039 
3807.000000	100.103995 
3806.000000	100.109407 
3805.000000	100.113972 
3804.000000	100.116605 
3803.000000	100.116358 
3802.000000	100.112888 
3801.000000	100.107667 
3800.000000	100.103263 
3799.000000	100.102440 
3798.000000	100.105027 
3797.000000	100.107186 
3796.000000	100.105309 
3795.000000	100.100178 
3794.000000	100.096439 
3793.000000	100.097301 
3792.000000	100.101067 
3791.000000	100.103294 
3790.000000	100.102061 
3789.000000	100.099708 
3788.000000	100.099556 
3787.000000	100.102816 
3786.000000	100.108688 
3785.000000	100.115683 
3784.000000	100.122150 
3783.000000	100.126368 
3782.000000	100.127480 
3781.000000	100.126013 
3780.000000	100.123471 
3779.000000	100.120852 
3778.000000	100.118173 
3777.000000	100.115227 
3776.000000	100.112307 
3775.000000	100.110058 
3774.000000	100.108969 
3773.000000	100.108884 
3772.000000	100.108986 
3771.000000	100.108625 
3770.000000	100.108205 
3769.000000	100.109023 
3768.000000	100.112287 
3767.000000	100.117815 
3766.000000	100.123166 
3765.000000	100.125504 
3764.000000	100.124283 
3763.000000	100.121985 
3762.000000	100.122112 
3761.000000	100.125801 
3760.000000	100.130769 
3759.000000	100.133660 
3758.000000	100.134312 
3757.000000	100.134790 
3756.000000	100.135049 
3755.000000	100.133578 
3754.000000	100.131009 
3753.000000	100.130618 
3752.000000	100.133807 
3751.000000	100.137330 
3750.000000	100.138198 
3749.000000	100.138328 
3748.000000	100.140099 
3747.000000	100.142893 
3746.000000	100.144951 
3745.000000	100.146288 
3744.000000	100.144965 
3743.000000	100.139070 
3742.000000	100.132505 
3741.000000	100.129949 
3740.000000	100.130804 
3739.000000	100.130541 
3738.000000	100.126458 
3737.000000	100.121933 
3736.000000	100.121553 
3735.000000	100.124409 
3734.000000	100.126018 
3733.000000	100.125194 
3732.000000	100.123983 
3731.000000	100.123507 
3730.000000	100.123690 
3729.000000	100.124465 
3728.000000	100.125242 
3727.000000	100.125240 
3726.000000	100.124702 
3725.000000	100.125255 
3724.000000	100.127758 
3723.000000	100.130155 
3722.000000	100.129577 
3721.000000	100.125815 
3720.000000	100.121899 
3719.000000	100.119900 
3718.000000	100.118781 
3717.000000	100.116400 
3716.000000	100.111083 
3715.000000	100.102586 
3714.000000	100.091829 
3713.000000	100.080821 
3712.000000	100.073559 
3711.000000	100.073535 
3710.000000	100.079826 
3709.000000	100.086946 
3708.000000	100.089047 
3707.000000	100.084026 
3706.000000	100.073365 
3705.000000	100.059975 
3704.000000	100.046831 
3703.000000	100.036864 
3702.000000	100.032873 
3701.000000	100.035281 
3700.000000	100.040636 
3699.000000	100.043520 
3698.000000	100.039977 
3697.000000	100.030184 
3696.000000	100.017850 
3695.000000	100.007522 
3694.000000	100.002023 
3693.000000	100.000983 
3692.000000	100.001746 
3691.000000	100.002103 
3690.000000	100.002603 
3689.000000	100.004090 
3688.000000	100.005128 
3687.000000	100.004433 
3686.000000	100.002448 
3685.000000	100.000016 
3684.000000	99.996995  
3683.000000	99.992081  
3682.000000	99.984417  
3681.000000	99.975726  
3680.000000	99.968411  
3679.000000	99.962016  
3678.000000	99.953508  
3677.000000	99.942998  
3676.000000	99.938193  
3675.000000	99.944916  
3674.000000	99.959460  
3673.000000	99.974871  
3672.000000	99.986265  
3671.000000	99.989834  
3670.000000	99.985288  
3669.000000	99.976538  
3668.000000	99.968169  
3667.000000	99.961754  
3666.000000	99.955605  
3665.000000	99.948628  
3664.000000	99.942447  
3663.000000	99.939057  
3662.000000	99.938652  
3661.000000	99.940498  
3660.000000	99.944118  
3659.000000	99.949482  
3658.000000	99.955594  
3657.000000	99.960996  
3656.000000	99.965346  
3655.000000	99.970186  
3654.000000	99.978496  
3653.000000	99.991601  
3652.000000	100.006906 
3651.000000	100.017921 
3650.000000	100.018420 
3649.000000	100.008692 
3648.000000	99.996155  
3647.000000	99.987982  
3646.000000	99.985585  
3645.000000	99.986897  
3644.000000	99.989860  
3643.000000	99.993091  
3642.000000	99.995682  
3641.000000	99.997746  
3640.000000	100.000705 
3639.000000	100.006739 
3638.000000	100.016441 
3637.000000	100.027362 
3636.000000	100.035558 
3635.000000	100.038942 
3634.000000	100.038965 
3633.000000	100.038721 
3632.000000	100.040328 
3631.000000	100.043965 
3630.000000	100.048307 
3629.000000	100.051390 
3628.000000	100.051298 
3627.000000	100.048957 
3626.000000	100.047512 
3625.000000	100.047518 
3624.000000	100.046720 
3623.000000	100.043251 
3622.000000	100.037586 
3621.000000	100.032149 
3620.000000	100.029910 
3619.000000	100.032993 
3618.000000	100.041938 
3617.000000	100.055354 
3616.000000	100.069402 
3615.000000	100.078995 
3614.000000	100.080976 
3613.000000	100.076016 
3612.000000	100.067337 
3611.000000	100.058378 
3610.000000	100.051275 
3609.000000	100.046878 
3608.000000	100.045653 
3607.000000	100.047748 
3606.000000	100.052814 
3605.000000	100.059328 
3604.000000	100.064063 
3603.000000	100.063781 
3602.000000	100.058369 
3601.000000	100.052362 
3600.000000	100.051790 
3599.000000	100.059091 
3598.000000	100.071262 
3597.000000	100.082677 
3596.000000	100.088711 
3595.000000	100.088637 
3594.000000	100.085598 
3593.000000	100.084002 
3592.000000	100.086896 
3591.000000	100.094414 
3590.000000	100.103334 
3589.000000	100.108923 
3588.000000	100.108718 
3587.000000	100.104459 
3586.000000	100.099794 
3585.000000	100.097035 
3584.000000	100.095680 
3583.000000	100.093620 
3582.000000	100.089005 
3581.000000	100.081872 
3580.000000	100.073940 
3579.000000	100.067095 
3578.000000	100.062207 
3577.000000	100.059316 
3576.000000	100.058494 
3575.000000	100.059783 
3574.000000	100.062902 
3573.000000	100.067154 
3572.000000	100.071791 
3571.000000	100.075685 
3570.000000	100.076690 
3569.000000	100.072745 
3568.000000	100.065247 
3567.000000	100.060185 
3566.000000	100.062955 
3565.000000	100.072582 
3564.000000	100.082795 
3563.000000	100.087366 
3562.000000	100.084692 
3561.000000	100.078209 
3560.000000	100.072737 
3559.000000	100.070168 
3558.000000	100.068910 
3557.000000	100.066844 
3556.000000	100.063835 
3555.000000	100.061307 
3554.000000	100.060484 
3553.000000	100.061520 
3552.000000	100.063512 
3551.000000	100.065105 
3550.000000	100.065215 
3549.000000	100.063680 
3548.000000	100.061575 
3547.000000	100.060858 
3546.000000	100.062972 
3545.000000	100.067539 
3544.000000	100.072682 
3543.000000	100.076688 
3542.000000	100.079120 
3541.000000	100.080341 
3540.000000	100.080637 
3539.000000	100.080125 
3538.000000	100.078912 
3537.000000	100.076932 
3536.000000	100.073549 
3535.000000	100.068271 
3534.000000	100.061842 
3533.000000	100.056239 
3532.000000	100.053276 
3531.000000	100.053333 
3530.000000	100.055552 
3529.000000	100.058963 
3528.000000	100.063209 
3527.000000	100.068193 
3526.000000	100.073223 
3525.000000	100.076691 
3524.000000	100.076993 
3523.000000	100.074102 
3522.000000	100.069919 
3521.000000	100.066647 
3520.000000	100.064860 
3519.000000	100.063647 
3518.000000	100.062104 
3517.000000	100.060351 
3516.000000	100.059214 
3515.000000	100.059638 
3514.000000	100.062210 
3513.000000	100.066430 
3512.000000	100.070244 
3511.000000	100.071040 
3510.000000	100.067987 
3509.000000	100.063226 
3508.000000	100.060209 
3507.000000	100.060713 
3506.000000	100.063411 
3505.000000	100.064983 
3504.000000	100.062760 
3503.000000	100.057503 
3502.000000	100.053727 
3501.000000	100.056075 
3500.000000	100.064319 
3499.000000	100.072413 
3498.000000	100.073374 
3497.000000	100.065550 
3496.000000	100.053952 
3495.000000	100.045221 
3494.000000	100.041959 
3493.000000	100.042061 
3492.000000	100.042450 
3491.000000	100.042288 
3490.000000	100.042880 
3489.000000	100.045469 
3488.000000	100.049611 
3487.000000	100.053386 
3486.000000	100.054954 
3485.000000	100.054084 
3484.000000	100.052307 
3483.000000	100.051503 
3482.000000	100.052080 
3481.000000	100.052685 
3480.000000	100.052055 
3479.000000	100.050867 
3478.000000	100.051053 
3477.000000	100.053216 
3476.000000	100.055400 
3475.000000	100.055021 
3474.000000	100.051936 
3473.000000	100.048901 
3472.000000	100.048786 
3471.000000	100.051799 
3470.000000	100.055686 
3469.000000	100.058120 
3468.000000	100.058330 
3467.000000	100.056678 
3466.000000	100.053527 
3465.000000	100.049172 
3464.000000	100.044510 
3463.000000	100.040945 
3462.000000	100.039248 
3461.000000	100.038792 
3460.000000	100.038318 
3459.000000	100.037330 
3458.000000	100.036459 
3457.000000	100.036515 
3456.000000	100.037420 
3455.000000	100.038428 
3454.000000	100.039222 
3453.000000	100.040397 
3452.000000	100.042643 
3451.000000	100.045700 
3450.000000	100.048595 
3449.000000	100.050633 
3448.000000	100.051644 
3447.000000	100.051387 
3446.000000	100.049637 
3445.000000	100.047094 
3444.000000	100.045351 
3443.000000	100.045353 
3442.000000	100.046350 
3441.000000	100.046942 
3440.000000	100.046738 
3439.000000	100.046319 
3438.000000	100.045781 
3437.000000	100.044280 
3436.000000	100.041257 
3435.000000	100.037708 
3434.000000	100.035722 
3433.000000	100.036769 
3432.000000	100.040384 
3431.000000	100.044348 
3430.000000	100.046217 
3429.000000	100.044833 
3428.000000	100.040771 
3427.000000	100.035662 
3426.000000	100.031230 
3425.000000	100.028739 
3424.000000	100.028819 
3423.000000	100.031415 
3422.000000	100.035628 
3421.000000	100.039694 
3420.000000	100.041629 
3419.000000	100.040614 
3418.000000	100.037809 
3417.000000	100.035314 
3416.000000	100.034177 
3415.000000	100.033753 
3414.000000	100.033077 
3413.000000	100.032264 
3412.000000	100.032128 
3411.000000	100.032924 
3410.000000	100.034164 
3409.000000	100.035360 
3408.000000	100.036235 
3407.000000	100.036313 
3406.000000	100.035079 
3405.000000	100.032829 
3404.000000	100.030948 
3403.000000	100.031061 
3402.000000	100.033823 
3401.000000	100.038305 
3400.000000	100.042418 
3399.000000	100.044241 
3398.000000	100.043512 
3397.000000	100.041878 
3396.000000	100.041462 
3395.000000	100.043105 
3394.000000	100.046085 
3393.000000	100.049076 
3392.000000	100.050915 
3391.000000	100.050727 
3390.000000	100.048104 
3389.000000	100.043510 
3388.000000	100.038211 
3387.000000	100.033593 
3386.000000	100.030567 
3385.000000	100.029478 
3384.000000	100.030075 
3383.000000	100.031519 
3382.000000	100.032779 
3381.000000	100.033256 
3380.000000	100.032903 
3379.000000	100.031884 
3378.000000	100.030655 
3377.000000	100.030387 
3376.000000	100.032561 
3375.000000	100.037497 
3374.000000	100.043537 
3373.000000	100.048188 
3372.000000	100.050055 
3371.000000	100.049500 
3370.000000	100.047882 
3369.000000	100.046751 
3368.000000	100.047315 
3367.000000	100.049583 
3366.000000	100.051784 
3365.000000	100.051586 
3364.000000	100.048570 
3363.000000	100.045051 
3362.000000	100.043843 
3361.000000	100.045300 
3360.000000	100.046988 
3359.000000	100.046263 
3358.000000	100.042888 
3357.000000	100.039076 
3356.000000	100.037224 
3355.000000	100.037719 
3354.000000	100.038958 
3353.000000	100.039460 
3352.000000	100.039687 
3351.000000	100.041508 
3350.000000	100.045883 
3349.000000	100.051538 
3348.000000	100.056149 
3347.000000	100.058535 
3346.000000	100.059311 
3345.000000	100.059631 
3344.000000	100.059781 
3343.000000	100.059017 
3342.000000	100.056488 
3341.000000	100.052263 
3340.000000	100.047667 
3339.000000	100.044411 
3338.000000	100.043019 
3337.000000	100.042189 
3336.000000	100.040242 
3335.000000	100.037349 
3334.000000	100.035758 
3333.000000	100.037460 
3332.000000	100.041913 
3331.000000	100.046452 
3330.000000	100.048873 
3329.000000	100.049295 
3328.000000	100.049519 
3327.000000	100.050843 
3326.000000	100.052754 
3325.000000	100.053897 
3324.000000	100.054191 
3323.000000	100.055442 
3322.000000	100.059152 
3321.000000	100.063835 
3320.000000	100.065472 
3319.000000	100.061422 
3318.000000	100.053508 
3317.000000	100.046592 
3316.000000	100.044269 
3315.000000	100.046432 
3314.000000	100.050594 
3313.000000	100.054529 
3312.000000	100.057439 
3311.000000	100.059524 
3310.000000	100.061248 
3309.000000	100.062920 
3308.000000	100.064588 
3307.000000	100.066132 
3306.000000	100.067227 
3305.000000	100.066948 
3304.000000	100.063868 
3303.000000	100.057492 
3302.000000	100.049843 
3301.000000	100.044827 
3300.000000	100.045227 
3299.000000	100.050386 
3298.000000	100.057022 
3297.000000	100.062040 
3296.000000	100.064526 
3295.000000	100.065622 
3294.000000	100.067102 
3293.000000	100.069838 
3292.000000	100.073061 
3291.000000	100.075089 
3290.000000	100.074985 
3289.000000	100.073351 
3288.000000	100.071413 
3287.000000	100.069747 
3286.000000	100.068264 
3285.000000	100.067005 
3284.000000	100.066346 
3283.000000	100.066531 
3282.000000	100.067400 
3281.000000	100.068436 
3280.000000	100.068797 
3279.000000	100.067667 
3278.000000	100.065172 
3277.000000	100.062841 
3276.000000	100.062557 
3275.000000	100.064874 
3274.000000	100.068593 
3273.000000	100.071793 
3272.000000	100.072789 
3271.000000	100.070404 
3270.000000	100.064429 
3269.000000	100.056504 
3268.000000	100.050105 
3267.000000	100.048756 
3266.000000	100.053638 
3265.000000	100.062687 
3264.000000	100.072124 
3263.000000	100.079153 
3262.000000	100.083460 
3261.000000	100.086230 
3260.000000	100.087961 
3259.000000	100.087667 
3258.000000	100.084206 
3257.000000	100.077898 
3256.000000	100.070505 
3255.000000	100.064100 
3254.000000	100.060347 
3253.000000	100.060281 
3252.000000	100.063739 
3251.000000	100.068933 
3250.000000	100.073383 
3249.000000	100.075679 
3248.000000	100.076092 
3247.000000	100.075507 
3246.000000	100.074320 
3245.000000	100.072596 
3244.000000	100.070889 
3243.000000	100.070534 
3242.000000	100.073091 
3241.000000	100.079173 
3240.000000	100.087157 
3239.000000	100.093221 
3238.000000	100.093772 
3237.000000	100.088650 
3236.000000	100.081536 
3235.000000	100.076694 
3234.000000	100.075585 
3233.000000	100.076965 
3232.000000	100.079418 
3231.000000	100.082634 
3230.000000	100.086331 
3229.000000	100.089100 
3228.000000	100.089060 
3227.000000	100.085429 
3226.000000	100.079234 
3225.000000	100.072745 
3224.000000	100.068271 
3223.000000	100.066972 
3222.000000	100.068380 
3221.000000	100.071149 
3220.000000	100.074406 
3219.000000	100.078066 
3218.000000	100.081656 
3217.000000	100.083545 
3216.000000	100.082291 
3215.000000	100.078806 
3214.000000	100.076285 
3213.000000	100.077315 
3212.000000	100.081366 
3211.000000	100.085701 
3210.000000	100.088491 
3209.000000	100.090195 
3208.000000	100.091816 
3207.000000	100.092989 
3206.000000	100.092839 
3205.000000	100.092141 
3204.000000	100.093172 
3203.000000	100.097026 
3202.000000	100.102123 
3201.000000	100.105998 
3200.000000	100.107735 
3199.000000	100.107797 
3198.000000	100.106316 
3197.000000	100.103212 
3196.000000	100.099943 
3195.000000	100.099249 
3194.000000	100.101952 
3193.000000	100.104968 
3192.000000	100.104044 
3191.000000	100.098558 
3190.000000	100.092570 
3189.000000	100.090735 
3188.000000	100.093952 
3187.000000	100.099336 
3186.000000	100.103563 
3185.000000	100.105359 
3184.000000	100.105194 
3183.000000	100.103874 
3182.000000	100.101948 
3181.000000	100.099823 
3180.000000	100.097657 
3179.000000	100.095200 
3178.000000	100.092166 
3177.000000	100.088795 
3176.000000	100.085858 
3175.000000	100.084321 
3174.000000	100.085239 
3173.000000	100.089468 
3172.000000	100.096621 
3171.000000	100.104315 
3170.000000	100.109419 
3169.000000	100.110736 
3168.000000	100.110167 
3167.000000	100.110743 
3166.000000	100.113696 
3165.000000	100.117714 
3164.000000	100.120594 
3163.000000	100.121058 
3162.000000	100.119323 
3161.000000	100.116810 
3160.000000	100.115428 
3159.000000	100.116364 
3158.000000	100.119037 
3157.000000	100.121391 
3156.000000	100.121498 
3155.000000	100.118958 
3154.000000	100.115000 
3153.000000	100.111617 
3152.000000	100.110418 
3151.000000	100.111585 
3150.000000	100.113672 
3149.000000	100.114937 
3148.000000	100.115248 
3147.000000	100.116253 
3146.000000	100.119165 
3145.000000	100.122803 
3144.000000	100.124661 
3143.000000	100.123999 
3142.000000	100.122962 
3141.000000	100.124102 
3140.000000	100.127305 
3139.000000	100.129974 
3138.000000	100.130141 
3137.000000	100.128576 
3136.000000	100.127400 
3135.000000	100.127223 
3134.000000	100.126594 
3133.000000	100.124464 
3132.000000	100.122181 
3131.000000	100.121948 
3130.000000	100.123480 
3129.000000	100.123593 
3128.000000	100.119899 
3127.000000	100.114172 
3126.000000	100.111019 
3125.000000	100.113295 
3124.000000	100.119602 
3123.000000	100.126245 
3122.000000	100.130704 
3121.000000	100.132890 
3120.000000	100.133973 
3119.000000	100.134937 
3118.000000	100.135956 
3117.000000	100.136370 
3116.000000	100.135277 
3115.000000	100.132560 
3114.000000	100.129189 
3113.000000	100.126234 
3112.000000	100.123947 
3111.000000	100.122358 
3110.000000	100.122217 
3109.000000	100.124150 
3108.000000	100.126888 
3107.000000	100.127599 
3106.000000	100.124874 
3105.000000	100.120687 
3104.000000	100.118677 
3103.000000	100.120952 
3102.000000	100.126989 
3101.000000	100.134651 
3100.000000	100.141135 
3099.000000	100.143728 
3098.000000	100.141475 
3097.000000	100.136681 
3096.000000	100.133598 
3095.000000	100.134693 
3094.000000	100.138529 
3093.000000	100.141686 
3092.000000	100.142154 
3091.000000	100.140345 
3090.000000	100.137568 
3089.000000	100.134761 
3088.000000	100.132887 
3087.000000	100.133368 
3086.000000	100.136987 
3085.000000	100.142398 
3084.000000	100.146717 
3083.000000	100.148106 
3082.000000	100.147436 
3081.000000	100.146981 
3080.000000	100.147806 
3079.000000	100.148929 
3078.000000	100.148722 
3077.000000	100.146445 
3076.000000	100.142585 
3075.000000	100.138541 
3074.000000	100.136078 
3073.000000	100.136263 
3072.000000	100.138589 
3071.000000	100.141604 
3070.000000	100.144381 
3069.000000	100.146449 
3068.000000	100.146335 
3067.000000	100.141856 
3066.000000	100.133009 
3065.000000	100.123540 
3064.000000	100.118155 
3063.000000	100.118428 
3062.000000	100.122365 
3061.000000	100.127345 
3060.000000	100.132238 
3059.000000	100.136916 
3058.000000	100.141054 
3057.000000	100.143935 
3056.000000	100.144927 
3055.000000	100.144038 
3054.000000	100.142288 
3053.000000	100.141146 
3052.000000	100.141022 
3051.000000	100.140694 
3050.000000	100.138907 
3049.000000	100.135975 
3048.000000	100.132828 
3047.000000	100.129025 
3046.000000	100.123263 
3045.000000	100.115932 
3044.000000	100.109699 
3043.000000	100.106910 
3042.000000	100.107278 
3041.000000	100.108610 
3040.000000	100.109047 
3039.000000	100.108105 
3038.000000	100.106184 
3037.000000	100.103735 
3036.000000	100.100651 
3035.000000	100.096235 
3034.000000	100.090087 
3033.000000	100.083054 
3032.000000	100.076648 
3031.000000	100.071278 
3030.000000	100.065685 
3029.000000	100.058455 
3028.000000	100.049496 
3027.000000	100.039773 
3026.000000	100.030306 
3025.000000	100.021799 
3024.000000	100.014464 
3023.000000	100.007410 
3022.000000	99.998666  
3021.000000	99.986681  
3020.000000	99.971883  
3019.000000	99.956500  
3018.000000	99.942905  
3017.000000	99.932136  
3016.000000	99.923495  
3015.000000	99.915262  
3014.000000	99.905931  
3013.000000	99.894852  
3012.000000	99.881514  
3011.000000	99.864760  
3010.000000	99.843915  
3009.000000	99.820895  
3008.000000	99.799885  
3007.000000	99.783996  
3006.000000	99.772753  
3005.000000	99.763355  
3004.000000	99.753387  
3003.000000	99.741423  
3002.000000	99.726270  
3001.000000	99.707705  
3000.000000	99.687895  
2999.000000	99.670228  
2998.000000	99.656298  
2997.000000	99.645473  
2996.000000	99.637563  
2995.000000	99.633306  
2994.000000	99.630331  
2993.000000	99.620856  
2992.000000	99.597467  
2991.000000	99.562163  
2990.000000	99.527230  
2989.000000	99.505240  
2988.000000	99.498932  
2987.000000	99.501820  
2986.000000	99.506920  
2985.000000	99.512536  
2984.000000	99.520020  
2983.000000	99.529002  
2982.000000	99.536635  
2981.000000	99.540465  
2980.000000	99.540603  
2979.000000	99.539043  
2978.000000	99.537580  
2977.000000	99.536332  
2976.000000	99.533851  
2975.000000	99.528788  
2974.000000	99.521684  
2973.000000	99.514922  
2972.000000	99.510711  
2971.000000	99.509555  
2970.000000	99.510948  
2969.000000	99.514918  
2968.000000	99.522083  
2967.000000	99.532381  
2966.000000	99.544469  
2965.000000	99.556571  
2964.000000	99.567631  
2963.000000	99.577633  
2962.000000	99.587026  
2961.000000	99.595899  
2960.000000	99.603736  
2959.000000	99.610263  
2958.000000	99.616494  
2957.000000	99.624069  
2956.000000	99.632909  
2955.000000	99.640218  
2954.000000	99.643178  
2953.000000	99.642970  
2952.000000	99.645067  
2951.000000	99.654566  
2950.000000	99.671106  
2949.000000	99.688696  
2948.000000	99.700576  
2947.000000	99.704233  
2946.000000	99.702121  
2945.000000	99.698272  
2944.000000	99.694943  
2943.000000	99.692312  
2942.000000	99.690120  
2941.000000	99.688300  
2940.000000	99.686213  
2939.000000	99.682635  
2938.000000	99.677137  
2937.000000	99.670762  
2936.000000	99.664849  
2935.000000	99.659799  
2934.000000	99.655377  
2933.000000	99.651347  
2932.000000	99.647111  
2931.000000	99.641479  
2930.000000	99.633717  
2929.000000	99.624389  
2928.000000	99.614588  
2927.000000	99.605036  
2926.000000	99.596751  
2925.000000	99.591638  
2924.000000	99.591017  
2923.000000	99.593963  
2922.000000	99.598330  
2921.000000	99.603065  
2920.000000	99.608247  
2919.000000	99.613252  
2918.000000	99.616596  
2917.000000	99.617854  
2916.000000	99.618419  
2915.000000	99.619954  
2914.000000	99.623040  
2913.000000	99.627561  
2912.000000	99.633180  
2911.000000	99.638861  
2910.000000	99.642829  
2909.000000	99.643738  
2908.000000	99.641458  
2907.000000	99.636427  
2906.000000	99.628777  
2905.000000	99.618469  
2904.000000	99.605939  
2903.000000	99.592938  
2902.000000	99.583171  
2901.000000	99.582019  
2900.000000	99.593150  
2899.000000	99.614125  
2898.000000	99.636568  
2897.000000	99.652273  
2896.000000	99.659703  
2895.000000	99.664033  
2894.000000	99.671049  
2893.000000	99.681527  
2892.000000	99.691491  
2891.000000	99.697013  
2890.000000	99.698155  
2889.000000	99.698378  
2888.000000	99.700707  
2887.000000	99.705069  
2886.000000	99.709502  
2885.000000	99.713147  
2884.000000	99.717140  
2883.000000	99.722880  
2882.000000	99.730560  
2881.000000	99.739720  
2880.000000	99.750324  
2879.000000	99.762676  
2878.000000	99.776699  
2877.000000	99.791554  
2876.000000	99.805395  
2875.000000	99.815312  
2874.000000	99.818660  
2873.000000	99.815698  
2872.000000	99.810722  
2871.000000	99.809559  
2870.000000	99.815428  
2869.000000	99.827107  
2868.000000	99.840832  
2867.000000	99.853570  
2866.000000	99.864719  
2865.000000	99.875254  
2864.000000	99.885559  
2863.000000	99.894189  
2862.000000	99.898895  
2861.000000	99.898942  
2860.000000	99.896301  
2859.000000	99.894547  
2858.000000	99.896560  
2857.000000	99.902948  
2856.000000	99.912045  
2855.000000	99.921460  
2854.000000	99.930075  
2853.000000	99.938735  
2852.000000	99.948856  
2851.000000	99.960667  
2850.000000	99.973350  
2849.000000	99.986458  
2848.000000	100.000080 
2847.000000	100.013433 
2846.000000	100.024444 
2845.000000	100.031495 
2844.000000	100.035249 
2843.000000	100.038322 
2842.000000	100.043430 
2841.000000	100.051805 
2840.000000	100.062571 
2839.000000	100.073114 
2838.000000	100.080594 
2837.000000	100.083713 
2836.000000	100.083101 
2835.000000	100.080364 
2834.000000	100.077543 
2833.000000	100.077194 
2832.000000	100.081259 
2831.000000	100.088999 
2830.000000	100.097152 
2829.000000	100.103246 
2828.000000	100.107951 
2827.000000	100.112999 
2826.000000	100.117664 
2825.000000	100.119116 
2824.000000	100.116359 
2823.000000	100.112334 
2822.000000	100.111416 
2821.000000	100.115529 
2820.000000	100.123101 
2819.000000	100.131086 
2818.000000	100.137367 
2817.000000	100.141449 
2816.000000	100.143589 
2815.000000	100.143811 
2814.000000	100.142066 
2813.000000	100.139129 
2812.000000	100.136598 
2811.000000	100.135552 
2810.000000	100.135612 
2809.000000	100.135849 
2808.000000	100.136214 
2807.000000	100.137360 
2806.000000	100.139300 
2805.000000	100.141156 
2804.000000	100.142435 
2803.000000	100.143831 
2802.000000	100.146335 
2801.000000	100.149845 
2800.000000	100.152937 
2799.000000	100.153960 
2798.000000	100.152387 
2797.000000	100.149367 
2796.000000	100.146986 
2795.000000	100.146715 
2794.000000	100.148337 
2793.000000	100.150258 
2792.000000	100.150756 
2791.000000	100.149147 
2790.000000	100.146351 
2789.000000	100.144541 
2788.000000	100.145659 
2787.000000	100.149728 
2786.000000	100.154963 
2785.000000	100.159900 
2784.000000	100.164767 
2783.000000	100.170008 
2782.000000	100.174181 
2781.000000	100.174759 
2780.000000	100.171168 
2779.000000	100.165901 
2778.000000	100.162176 
2777.000000	100.161273 
2776.000000	100.162346 
2775.000000	100.163839 
2774.000000	100.164481 
2773.000000	100.163759 
2772.000000	100.162309 
2771.000000	100.161533 
2770.000000	100.162361 
2769.000000	100.164670 
2768.000000	100.168122 
2767.000000	100.172636 
2766.000000	100.177420 
2765.000000	100.180498 
2764.000000	100.180535 
2763.000000	100.178778 
2762.000000	100.177988 
2761.000000	100.179542 
2760.000000	100.182613 
2759.000000	100.185992 
2758.000000	100.189260 
2757.000000	100.191947 
2756.000000	100.193100 
2755.000000	100.192567 
2754.000000	100.191553 
2753.000000	100.190894 
2752.000000	100.189700 
2751.000000	100.186933 
2750.000000	100.183629 
2749.000000	100.182037 
2748.000000	100.182605 
2747.000000	100.183166 
2746.000000	100.181444 
2745.000000	100.177471 
2744.000000	100.173315 
2743.000000	100.171187 
2742.000000	100.172112 
2741.000000	100.175536 
2740.000000	100.179705 
2739.000000	100.182972 
2738.000000	100.185191 
2737.000000	100.187515 
2736.000000	100.190545 
2735.000000	100.193243 
2734.000000	100.194050 
2733.000000	100.192652 
2732.000000	100.190179 
2731.000000	100.188041 
2730.000000	100.187054 
2729.000000	100.187486 
2728.000000	100.189346 
2727.000000	100.192409 
2726.000000	100.196049 
2725.000000	100.199257 
2724.000000	100.201259 
2723.000000	100.202480 
2722.000000	100.204460 
2721.000000	100.207971 
2720.000000	100.211283 
2719.000000	100.211382 
2718.000000	100.207285 
2717.000000	100.201396 
2716.000000	100.197247 
2715.000000	100.196633 
2714.000000	100.199219 
2713.000000	100.203614 
2712.000000	100.207795 
2711.000000	100.209538 
2710.000000	100.208103 
2709.000000	100.205414 
2708.000000	100.204318 
2707.000000	100.205478 
2706.000000	100.206848 
2705.000000	100.206314 
2704.000000	100.204035 
2703.000000	100.201940 
2702.000000	100.201655 
2701.000000	100.203294 
2700.000000	100.205784 
2699.000000	100.207809 
2698.000000	100.208462 
2697.000000	100.207332 
2696.000000	100.204504 
2695.000000	100.200935 
2694.000000	100.198596 
2693.000000	100.199165 
2692.000000	100.202076 
2691.000000	100.204738 
2690.000000	100.205499 
2689.000000	100.205731 
2688.000000	100.207889 
2687.000000	100.211975 
2686.000000	100.215215 
2685.000000	100.215256 
2684.000000	100.212603 
2683.000000	100.209710 
2682.000000	100.208576 
2681.000000	100.209518 
2680.000000	100.211422 
2679.000000	100.212746 
2678.000000	100.212805 
2677.000000	100.212393 
2676.000000	100.212724 
2675.000000	100.213583 
2674.000000	100.213127 
2673.000000	100.209885 
2672.000000	100.204606 
2671.000000	100.199779 
2670.000000	100.197417 
2669.000000	100.197507 
2668.000000	100.198573 
2667.000000	100.199693 
2666.000000	100.201671 
2665.000000	100.205781 
2664.000000	100.211398 
2663.000000	100.215742 
2662.000000	100.216526 
2661.000000	100.214320 
2660.000000	100.211756 
2659.000000	100.211048 
2658.000000	100.212967 
2657.000000	100.217266 
2656.000000	100.222646 
2655.000000	100.226598 
2654.000000	100.226814 
2653.000000	100.223142 
2652.000000	100.217399 
2651.000000	100.211466 
2650.000000	100.206529 
2649.000000	100.203739 
2648.000000	100.203909 
2647.000000	100.206350 
2646.000000	100.209390 
2645.000000	100.212314 
2644.000000	100.215492 
2643.000000	100.218440 
2642.000000	100.219500 
2641.000000	100.218114 
2640.000000	100.216011 
2639.000000	100.215372 
2638.000000	100.216986 
2637.000000	100.220602 
2636.000000	100.225346 
2635.000000	100.228993 
2634.000000	100.228802 
2633.000000	100.224723 
2632.000000	100.220433 
2631.000000	100.219412 
2630.000000	100.220968 
2629.000000	100.221807 
2628.000000	100.220743 
2627.000000	100.220061 
2626.000000	100.222628 
2625.000000	100.229248 
2624.000000	100.238416 
2623.000000	100.246956 
2622.000000	100.251067 
2621.000000	100.248659 
2620.000000	100.241309 
2619.000000	100.232916 
2618.000000	100.226173 
2617.000000	100.221166 
2616.000000	100.217199 
2615.000000	100.214520 
2614.000000	100.213736 
2613.000000	100.214596 
2612.000000	100.216156 
2611.000000	100.217755 
2610.000000	100.219371 
2609.000000	100.221216 
2608.000000	100.223260 
2607.000000	100.225314 
2606.000000	100.227720 
2605.000000	100.231627 
2604.000000	100.237522 
2603.000000	100.243166 
2602.000000	100.244466 
2601.000000	100.239829 
2600.000000	100.233011 
2599.000000	100.230057 
2598.000000	100.233446 
2597.000000	100.240216 
2596.000000	100.245260 
2595.000000	100.244902 
2594.000000	100.237878 
2593.000000	100.225671 
2592.000000	100.213255 
2591.000000	100.207558 
2590.000000	100.212734 
2589.000000	100.226675 
2588.000000	100.242761 
2587.000000	100.254597 
2586.000000	100.258596 
2585.000000	100.253602 
2584.000000	100.240751 
2583.000000	100.224438 
2582.000000	100.211473 
2581.000000	100.206990 
2580.000000	100.210575 
2579.000000	100.216997 
2578.000000	100.221025 
2577.000000	100.221485 
2576.000000	100.221039 
2575.000000	100.222852 
2574.000000	100.227783 
2573.000000	100.234039 
2572.000000	100.238579 
2571.000000	100.238826 
2570.000000	100.234019 
2569.000000	100.226031 
2568.000000	100.219036 
2567.000000	100.217505 
2566.000000	100.223257 
2565.000000	100.233764 
2564.000000	100.243615 
2563.000000	100.248315 
2562.000000	100.247053 
2561.000000	100.242191 
2560.000000	100.236833 
2559.000000	100.233217 
2558.000000	100.232239 
2557.000000	100.232892 
2556.000000	100.232453 
2555.000000	100.229227 
2554.000000	100.225640 
2553.000000	100.226727 
2552.000000	100.234274 
2551.000000	100.243924 
2550.000000	100.249597 
2549.000000	100.249549 
2548.000000	100.246235 
2547.000000	100.241488 
2546.000000	100.234928 
2545.000000	100.227456 
2544.000000	100.223378 
2543.000000	100.227029 
2542.000000	100.238096 
2541.000000	100.251385 
2540.000000	100.260743 
2539.000000	100.262721 
2538.000000	100.257374 
2537.000000	100.246881 
2536.000000	100.233956 
2535.000000	100.221436 
2534.000000	100.212769 
2533.000000	100.211411 
2532.000000	100.218355 
2531.000000	100.230435 
2530.000000	100.242116 
2529.000000	100.249171 
2528.000000	100.250409 
2527.000000	100.246975 
2526.000000	100.241701 
2525.000000	100.238840 
2524.000000	100.242065 
2523.000000	100.251386 
2522.000000	100.262630 
2521.000000	100.270606 
2520.000000	100.272644 
2519.000000	100.269582 
2518.000000	100.264501 
2517.000000	100.260445 
2516.000000	100.258072 
2515.000000	100.255332 
2514.000000	100.250373 
2513.000000	100.244319 
2512.000000	100.239684 
2511.000000	100.236602 
2510.000000	100.233180 
2509.000000	100.229882 
2508.000000	100.230484 
2507.000000	100.236767 
2506.000000	100.244409 
2505.000000	100.246710 
2504.000000	100.241711 
2503.000000	100.233650 
2502.000000	100.227922 
2501.000000	100.226693 
2500.000000	100.229481 
2499.000000	100.235878 
2498.000000	100.246125 
2497.000000	100.259246 
2496.000000	100.271575 
2495.000000	100.277938 
2494.000000	100.274904 
2493.000000	100.263031 
2492.000000	100.245914 
2491.000000	100.227671 
2490.000000	100.212071 
2489.000000	100.202972 
2488.000000	100.202905 
2487.000000	100.210352 
2486.000000	100.220281 
2485.000000	100.228884 
2484.000000	100.236672 
2483.000000	100.245620 
2482.000000	100.254521 
2481.000000	100.259253 
2480.000000	100.257399 
2479.000000	100.250796 
2478.000000	100.243270 
2477.000000	100.237256 
2476.000000	100.233151 
2475.000000	100.230823 
2474.000000	100.230643 
2473.000000	100.233123 
2472.000000	100.238089 
2471.000000	100.244402 
2470.000000	100.250254 
2469.000000	100.253483 
2468.000000	100.251941 
2467.000000	100.244732 
2466.000000	100.234132 
2465.000000	100.225630 
2464.000000	100.224157 
2463.000000	100.229496 
2462.000000	100.236286 
2461.000000	100.239138 
2460.000000	100.237119 
2459.000000	100.233069 
2458.000000	100.229989 
2457.000000	100.229100 
2456.000000	100.230292 
2455.000000	100.232795 
2454.000000	100.235524 
2453.000000	100.237842 
2452.000000	100.240005 
2451.000000	100.242226 
2450.000000	100.243585 
2449.000000	100.242692 
2448.000000	100.239408 
2447.000000	100.235349 
2446.000000	100.232862 
2445.000000	100.233837 
2444.000000	100.238853 
2443.000000	100.246458 
2442.000000	100.253470 
2441.000000	100.257041 
2440.000000	100.256785 
2439.000000	100.254516 
2438.000000	100.252041 
2437.000000	100.249721 
2436.000000	100.246837 
2435.000000	100.242390 
2434.000000	100.235533 
2433.000000	100.226420 
2432.000000	100.217226 
2431.000000	100.211543 
2430.000000	100.211778 
2429.000000	100.217229 
2428.000000	100.225257 
2427.000000	100.233953 
2426.000000	100.242547 
2425.000000	100.249142 
2424.000000	100.249883 
2423.000000	100.242308 
2422.000000	100.229343 
2421.000000	100.218168 
2420.000000	100.214183 
2419.000000	100.216930 
2418.000000	100.222314 
2417.000000	100.227264 
2416.000000	100.230902 
2415.000000	100.232662 
2414.000000	100.231954 
2413.000000	100.229856 
2412.000000	100.228835 
2411.000000	100.229839 
2410.000000	100.231250 
2409.000000	100.231719 
2408.000000	100.232539 
2407.000000	100.235696 
2406.000000	100.240611 
2405.000000	100.244602 
2404.000000	100.246170 
2403.000000	100.246031 
2402.000000	100.244811 
2401.000000	100.241557 
2400.000000	100.235441 
2399.000000	100.227843 
2398.000000	100.221589 
2397.000000	100.218556 
2396.000000	100.218915 
2395.000000	100.222289 
2394.000000	100.228309 
2393.000000	100.235628 
2392.000000	100.241625 
2391.000000	100.244329 
2390.000000	100.244422 
2389.000000	100.244354 
2388.000000	100.245340 
2387.000000	100.246045 
2386.000000	100.244514 
2385.000000	100.240582 
2384.000000	100.235895 
2383.000000	100.232283 
2382.000000	100.230875 
2381.000000	100.232051 
2380.000000	100.234800 
2379.000000	100.235963 
2378.000000	100.231679 
2377.000000	100.221249 
2376.000000	100.209453 
2375.000000	100.203488 
2374.000000	100.206648 
2373.000000	100.215621 
2372.000000	100.224735 
2371.000000	100.232027 
2370.000000	100.239658 
2369.000000	100.248721 
2368.000000	100.255511 
2367.000000	100.254089 
2366.000000	100.242532 
2365.000000	100.226492 
2364.000000	100.215632 
2363.000000	100.215717 
2362.000000	100.224455 
2361.000000	100.234368 
2360.000000	100.240033 
2359.000000	100.241573 
2358.000000	100.241941 
2357.000000	100.243346 
2356.000000	100.246071 
2355.000000	100.248145 
2354.000000	100.246437 
2353.000000	100.240905 
2352.000000	100.235915 
2351.000000	100.235957 
2350.000000	100.241330 
2349.000000	100.248077 
2348.000000	100.251631 
2347.000000	100.250766 
2346.000000	100.248198 
2345.000000	100.246440 
2344.000000	100.245024 
2343.000000	100.243362 
2342.000000	100.243366 
2341.000000	100.246907 
2340.000000	100.252157 
2339.000000	100.255011 
2338.000000	100.253927 
2337.000000	100.252718 
2336.000000	100.255890 
2335.000000	100.262550 
2334.000000	100.267086 
2333.000000	100.266130 
2332.000000	100.260756 
2331.000000	100.252428 
2330.000000	100.241703 
2329.000000	100.231881 
2328.000000	100.228997 
2327.000000	100.235795 
2326.000000	100.248172 
2325.000000	100.258648 
2324.000000	100.262203 
2323.000000	100.259540 
2322.000000	100.256475 
2321.000000	100.259189 
2320.000000	100.267889 
2319.000000	100.276271 
2318.000000	100.278434 
2317.000000	100.275003 
2316.000000	100.270631 
2315.000000	100.267678 
2314.000000	100.265164 
2313.000000	100.262699 
2312.000000	100.262315 
2311.000000	100.266067 
2310.000000	100.274134 
2309.000000	100.284694 
2308.000000	100.293672 
2307.000000	100.295689 
2306.000000	100.288377 
2305.000000	100.275560 
2304.000000	100.263687 
2303.000000	100.255792 
2302.000000	100.251367 
2301.000000	100.250539 
2300.000000	100.253996 
2299.000000	100.259151 
2298.000000	100.261058 
2297.000000	100.258587 
2296.000000	100.256096 
2295.000000	100.256981 
2294.000000	100.258965 
2293.000000	100.257968 
2292.000000	100.254330 
2291.000000	100.252279 
2290.000000	100.254818 
2289.000000	100.261052 
2288.000000	100.267564 
2287.000000	100.270683 
2286.000000	100.268598 
2285.000000	100.262936 
2284.000000	100.257738 
2283.000000	100.255668 
2282.000000	100.255435 
2281.000000	100.253428 
2280.000000	100.247454 
2279.000000	100.239264 
2278.000000	100.234221 
2277.000000	100.237687 
2276.000000	100.249846 
2275.000000	100.264522 
2274.000000	100.274651 
2273.000000	100.277950 
2272.000000	100.275505 
2271.000000	100.267524 
2270.000000	100.255364 
2269.000000	100.246255 
2268.000000	100.249190 
2267.000000	100.264202 
2266.000000	100.280479 
2265.000000	100.287297 
2264.000000	100.283374 
2263.000000	100.274728 
2262.000000	100.268496 
2261.000000	100.270396 
2260.000000	100.282069 
2259.000000	100.297218 
2258.000000	100.304955 
2257.000000	100.301093 
2256.000000	100.292461 
2255.000000	100.286671 
2254.000000	100.282275 
2253.000000	100.274225 
2252.000000	100.265068 
2251.000000	100.263881 
2250.000000	100.274951 
2249.000000	100.292791 
2248.000000	100.308352 
2247.000000	100.316470 
2246.000000	100.317087 
2245.000000	100.312412 
2244.000000	100.304423 
2243.000000	100.294067 
2242.000000	100.282584 
2241.000000	100.272937 
2240.000000	100.267825 
2239.000000	100.266012 
2238.000000	100.263346 
2237.000000	100.258297 
2236.000000	100.253540 
2235.000000	100.251065 
2234.000000	100.249379 
2233.000000	100.247564 
2232.000000	100.248593 
2231.000000	100.255895 
2230.000000	100.269196 
2229.000000	100.285831 
2228.000000	100.303251 
2227.000000	100.317908 
2226.000000	100.324906 
2225.000000	100.322077 
2224.000000	100.312472 
2223.000000	100.300680 
2222.000000	100.289460 
2221.000000	100.281707 
2220.000000	100.281395 
2219.000000	100.288992 
2218.000000	100.299213 
2217.000000	100.307233 
2216.000000	100.314852 
2215.000000	100.326612 
2214.000000	100.341318 
2213.000000	100.351113 
2212.000000	100.349122 
2211.000000	100.336891 
2210.000000	100.325281 
2209.000000	100.327521 
2208.000000	100.347355 
2207.000000	100.373028 
2206.000000	100.386760 
2205.000000	100.381439 
2204.000000	100.364509 
2203.000000	100.345968 
2202.000000	100.329845 
2201.000000	100.318788 
2200.000000	100.317263 
2199.000000	100.324304 
2198.000000	100.330289 
2197.000000	100.328306 
2196.000000	100.324091 
2195.000000	100.327918 
2194.000000	100.340635 
2193.000000	100.354112 
2192.000000	100.361704 
2191.000000	100.361780 
2190.000000	100.354671 
2189.000000	100.343854 
2188.000000	100.337659 
2187.000000	100.342393 
2186.000000	100.354885 
2185.000000	100.367243 
2184.000000	100.376529 
2183.000000	100.383951 
2182.000000	100.388037 
2181.000000	100.386857 
2180.000000	100.384803 
2179.000000	100.388442 
2178.000000	100.396001 
2177.000000	100.397936 
2176.000000	100.387944 
2175.000000	100.368540 
2174.000000	100.347487 
2173.000000	100.334317 
2172.000000	100.337311 
2171.000000	100.356296 
2170.000000	100.379395 
2169.000000	100.393845 
2168.000000	100.399713 
2167.000000	100.406356 
2166.000000	100.416689 
2165.000000	100.423830 
2164.000000	100.424113 
2163.000000	100.424165 
2162.000000	100.431689 
2161.000000	100.445916 
2160.000000	100.459518 
2159.000000	100.464072 
2158.000000	100.453055 
2157.000000	100.427690 
2156.000000	100.400994 
2155.000000	100.388030 
2154.000000	100.390537 
2153.000000	100.396129 
2152.000000	100.393561 
2151.000000	100.384163 
2150.000000	100.377055 
2149.000000	100.378400 
2148.000000	100.387389 
2147.000000	100.398131 
2146.000000	100.402673 
2145.000000	100.395899 
2144.000000	100.380905 
2143.000000	100.367414 
2142.000000	100.362900 
2141.000000	100.366633 
2140.000000	100.372755 
2139.000000	100.376234 
2138.000000	100.374019 
2137.000000	100.363542 
2136.000000	100.344347 
2135.000000	100.321466 
2134.000000	100.304595 
2133.000000	100.301473 
2132.000000	100.310822 
2131.000000	100.322114 
2130.000000	100.323640 
2129.000000	100.312265 
2128.000000	100.295330 
2127.000000	100.282416 
2126.000000	100.276537 
2125.000000	100.274768 
2124.000000	100.275543 
2123.000000	100.281414 
2122.000000	100.293601 
2121.000000	100.306940 
2120.000000	100.313285 
2119.000000	100.309463 
2118.000000	100.299945 
2117.000000	100.291725 
2116.000000	100.288082 
2115.000000	100.287932 
2114.000000	100.289843 
2113.000000	100.294414 
2112.000000	100.301875 
2111.000000	100.308892 
2110.000000	100.310140 
2109.000000	100.303701 
2108.000000	100.293501 
2107.000000	100.285151 
2106.000000	100.279983 
2105.000000	100.274250 
2104.000000	100.264273 
2103.000000	100.251949 
2102.000000	100.244718 
2101.000000	100.249090 
2100.000000	100.263390 
2099.000000	100.277947 
2098.000000	100.284173 
2097.000000	100.283125 
2096.000000	100.282772 
2095.000000	100.286489 
2094.000000	100.287705 
2093.000000	100.278311 
2092.000000	100.260122 
2091.000000	100.244848 
2090.000000	100.242893 
2089.000000	100.253627 
2088.000000	100.266777 
2087.000000	100.272734 
2086.000000	100.271003 
2085.000000	100.268859 
2084.000000	100.272491 
2083.000000	100.280790 
2082.000000	100.288694 
2081.000000	100.294642 
2080.000000	100.301648 
2079.000000	100.311240 
2078.000000	100.320241 
2077.000000	100.325499 
2076.000000	100.328889 
2075.000000	100.334557 
2074.000000	100.342756 
2073.000000	100.349266 
2072.000000	100.350396 
2071.000000	100.346383 
2070.000000	100.340086 
2069.000000	100.334398 
2068.000000	100.331095 
2067.000000	100.330693 
2066.000000	100.332523 
2065.000000	100.334962 
2064.000000	100.336176 
2063.000000	100.335821 
2062.000000	100.336848 
2061.000000	100.344184 
2060.000000	100.359077 
2059.000000	100.375191 
2058.000000	100.383197 
2057.000000	100.379789 
2056.000000	100.369922 
2055.000000	100.360391 
2054.000000	100.354839 
2053.000000	100.355371 
2052.000000	100.363885 
2051.000000	100.378578 
2050.000000	100.391779 
2049.000000	100.394959 
2048.000000	100.386033 
2047.000000	100.369854 
2046.000000	100.353307 
2045.000000	100.342634 
2044.000000	100.342496 
2043.000000	100.353182 
2042.000000	100.369227 
2041.000000	100.383284 
2040.000000	100.391517 
2039.000000	100.394536 
2038.000000	100.395253 
2037.000000	100.397296 
2036.000000	100.402370 
2035.000000	100.406883 
2034.000000	100.404168 
2033.000000	100.392647 
2032.000000	100.378822 
2031.000000	100.369858 
2030.000000	100.366915 
2029.000000	100.367555 
2028.000000	100.369936 
2027.000000	100.372171 
2026.000000	100.372610 
2025.000000	100.374146 
2024.000000	100.382597 
2023.000000	100.395937 
2022.000000	100.400577 
2021.000000	100.386162 
2020.000000	100.361592 
2019.000000	100.348099 
2018.000000	100.356248 
2017.000000	100.375407 
2016.000000	100.387443 
2015.000000	100.385915 
2014.000000	100.378350 
2013.000000	100.374485 
2012.000000	100.376773 
2011.000000	100.381355 
2010.000000	100.385593 
2009.000000	100.392082 
2008.000000	100.403567 
2007.000000	100.415345 
2006.000000	100.417451 
2005.000000	100.406178 
2004.000000	100.389312 
2003.000000	100.377161 
2002.000000	100.371892 
2001.000000	100.368227 
2000.000000	100.361268 
1999.000000	100.350837 
1998.000000	100.340766 
1997.000000	100.337006 
1996.000000	100.344689 
1995.000000	100.363878 
1994.000000	100.387636 
1993.000000	100.405104 
1992.000000	100.408094 
1991.000000	100.396269 
1990.000000	100.377526 
1989.000000	100.364010 
1988.000000	100.364603 
1987.000000	100.377390 
1986.000000	100.390290 
1985.000000	100.392395 
1984.000000	100.384851 
1983.000000	100.378748 
1982.000000	100.382784 
1981.000000	100.394429 
1980.000000	100.402618 
1979.000000	100.398291 
1978.000000	100.382982 
1977.000000	100.366837 
1976.000000	100.357155 
1975.000000	100.351709 
1974.000000	100.346964 
1973.000000	100.349206 
1972.000000	100.369905 
1971.000000	100.408240 
1970.000000	100.444002 
1969.000000	100.453081 
1968.000000	100.430387 
1967.000000	100.394994 
1966.000000	100.371345 
1965.000000	100.368111 
1964.000000	100.376461 
1963.000000	100.383661 
1962.000000	100.383525 
1961.000000	100.375998 
1960.000000	100.362741 
1959.000000	100.346814 
1958.000000	100.334521 
1957.000000	100.331989 
1956.000000	100.338395 
1955.000000	100.346164 
1954.000000	100.349508 
1953.000000	100.349615 
1952.000000	100.349603 
1951.000000	100.347851 
1950.000000	100.340334 
1949.000000	100.327974 
1948.000000	100.316700 
1947.000000	100.309719 
1946.000000	100.303604 
1945.000000	100.293150 
1944.000000	100.278064 
1943.000000	100.264410 
1942.000000	100.259707 
1941.000000	100.265104 
1940.000000	100.272568 
1939.000000	100.272529 
1938.000000	100.265403 
1937.000000	100.262943 
1936.000000	100.274388 
1935.000000	100.293708 
1934.000000	100.306241 
1933.000000	100.306584 
1932.000000	100.303862 
1931.000000	100.308085 
1930.000000	100.317752 
1929.000000	100.324446 
1928.000000	100.323831 
1927.000000	100.317803 
1926.000000	100.309425 
1925.000000	100.300769 
1924.000000	100.294513 
1923.000000	100.293166 
1922.000000	100.296583 
1921.000000	100.302421 
1920.000000	100.307743 
1919.000000	100.308887 
1918.000000	100.302589 
1917.000000	100.290250 
1916.000000	100.277767 
1915.000000	100.268706 
1914.000000	100.262488 
1913.000000	100.259048 
1912.000000	100.260192 
1911.000000	100.265285 
1910.000000	100.269385 
1909.000000	100.269254 
1908.000000	100.268163 
1907.000000	100.271159 
1906.000000	100.277963 
1905.000000	100.283803 
1904.000000	100.285229 
1903.000000	100.281737 
1902.000000	100.274298 
1901.000000	100.265853 
1900.000000	100.260847 
1899.000000	100.261553 
1898.000000	100.265788 
1897.000000	100.269469 
1896.000000	100.270521 
1895.000000	100.268751 
1894.000000	100.264114 
1893.000000	100.257910 
1892.000000	100.253434 
1891.000000	100.253102 
1890.000000	100.255653 
1889.000000	100.257701 
1888.000000	100.257869 
1887.000000	100.257026 
1886.000000	100.255977 
1885.000000	100.255616 
1884.000000	100.257482 
1883.000000	100.262119 
1882.000000	100.268021 
1881.000000	100.273325 
1880.000000	100.277147 
1879.000000	100.279357 
1878.000000	100.280744 
1877.000000	100.283042 
1876.000000	100.286926 
1875.000000	100.289483 
1874.000000	100.285780 
1873.000000	100.274657 
1872.000000	100.261025 
1871.000000	100.251470 
1870.000000	100.249293 
1869.000000	100.253491 
1868.000000	100.261118 
1867.000000	100.269008 
1866.000000	100.273790 
1865.000000	100.273027 
1864.000000	100.266087 
1863.000000	100.253829 
1862.000000	100.239631 
1861.000000	100.230394 
1860.000000	100.232602 
1859.000000	100.245385 
1858.000000	100.260081 
1857.000000	100.268399 
1856.000000	100.269293 
1855.000000	100.266977 
1854.000000	100.265292 
1853.000000	100.265416 
1852.000000	100.265805 
1851.000000	100.264061 
1850.000000	100.261127 
1849.000000	100.262105 
1848.000000	100.270014 
1847.000000	100.279758 
1846.000000	100.282507 
1845.000000	100.276422 
1844.000000	100.270369 
1843.000000	100.272473 
1842.000000	100.279751 
1841.000000	100.284574 
1840.000000	100.283486 
1839.000000	100.277908 
1838.000000	100.271044 
1837.000000	100.265733 
1836.000000	100.263473 
1835.000000	100.263373 
1834.000000	100.263420 
1833.000000	100.262686 
1832.000000	100.260999 
1831.000000	100.258545 
1830.000000	100.256954 
1829.000000	100.258953 
1828.000000	100.265084 
1827.000000	100.271392 
1826.000000	100.272902 
1825.000000	100.269729 
1824.000000	100.266999 
1823.000000	100.266811 
1822.000000	100.264462 
1821.000000	100.256418 
1820.000000	100.247628 
1819.000000	100.246648 
1818.000000	100.254281 
1817.000000	100.262314 
1816.000000	100.264438 
1815.000000	100.262298 
1814.000000	100.260478 
1813.000000	100.260755 
1812.000000	100.262829 
1811.000000	100.267048 
1810.000000	100.273053 
1809.000000	100.279083 
1808.000000	100.283950 
1807.000000	100.286346 
1806.000000	100.284002 
1805.000000	100.276996 
1804.000000	100.269812 
1803.000000	100.266721 
1802.000000	100.266618 
1801.000000	100.264655 
1800.000000	100.259336 
1799.000000	100.254470 
1798.000000	100.253371 
1797.000000	100.256781 
1796.000000	100.264392 
1795.000000	100.273823 
1794.000000	100.280548 
1793.000000	100.281092 
1792.000000	100.277608 
1791.000000	100.275591 
1790.000000	100.275633 
1789.000000	100.274629 
1788.000000	100.272286 
1787.000000	100.271047 
1786.000000	100.272082 
1785.000000	100.274510 
1784.000000	100.277242 
1783.000000	100.278570 
1782.000000	100.276475 
1781.000000	100.271070 
1780.000000	100.265247 
1779.000000	100.261526 
1778.000000	100.259176 
1777.000000	100.257104 
1776.000000	100.256173 
1775.000000	100.256790 
1774.000000	100.258056 
1773.000000	100.259726 
1772.000000	100.263236 
1771.000000	100.270136 
1770.000000	100.278211 
1769.000000	100.281549 
1768.000000	100.277277 
1767.000000	100.269412 
1766.000000	100.263558 
1765.000000	100.260718 
1764.000000	100.258836 
1763.000000	100.257327 
1762.000000	100.257146 
1761.000000	100.258189 
1760.000000	100.259910 
1759.000000	100.262473 
1758.000000	100.265938 
1757.000000	100.270199 
1756.000000	100.274117 
1755.000000	100.276913 
1754.000000	100.278384 
1753.000000	100.277440 
1752.000000	100.272588 
1751.000000	100.263767 
1750.000000	100.253655 
1749.000000	100.245990 
1748.000000	100.242985 
1747.000000	100.244622 
1746.000000	100.249277 
1745.000000	100.253295 
1744.000000	100.253076 
1743.000000	100.248971 
1742.000000	100.244186 
1741.000000	100.240306 
1740.000000	100.237577 
1739.000000	100.237867 
1738.000000	100.243656 
1737.000000	100.252904 
1736.000000	100.260824 
1735.000000	100.264403 
1734.000000	100.263307 
1733.000000	100.261193 
1732.000000	100.261040 
1731.000000	100.259343 
1730.000000	100.253102 
1729.000000	100.246888 
1728.000000	100.245698 
1727.000000	100.249191 
1726.000000	100.253424 
1725.000000	100.256324 
1724.000000	100.258256 
1723.000000	100.259381 
1722.000000	100.257981 
1721.000000	100.253856 
1720.000000	100.250481 
1719.000000	100.253739 
1718.000000	100.263891 
1717.000000	100.271206 
1716.000000	100.272576 
1715.000000	100.273506 
1714.000000	100.273161 
1713.000000	100.268852 
1712.000000	100.262847 
1711.000000	100.258196 
1710.000000	100.255473 
1709.000000	100.254772 
1708.000000	100.256835 
1707.000000	100.261077 
1706.000000	100.263983 
1705.000000	100.262886 
1704.000000	100.262228 
1703.000000	100.264623 
1702.000000	100.265513 
1701.000000	100.258381 
1700.000000	100.248090 
1699.000000	100.250625 
1698.000000	100.264781 
1697.000000	100.274240 
1696.000000	100.271435 
1695.000000	100.263964 
1694.000000	100.260740 
1693.000000	100.260770 
1692.000000	100.260049 
1691.000000	100.258798 
1690.000000	100.258906 
1689.000000	100.260818 
1688.000000	100.263848 
1687.000000	100.267149 
1686.000000	100.270236 
1685.000000	100.271838 
1684.000000	100.269747 
1683.000000	100.265641 
1682.000000	100.263829 
1681.000000	100.263520 
1680.000000	100.261238 
1679.000000	100.258624 
1678.000000	100.256976 
1677.000000	100.255062 
1676.000000	100.249889 
1675.000000	100.243059 
1674.000000	100.241372 
1673.000000	100.247073 
1672.000000	100.254710 
1671.000000	100.259184 
1670.000000	100.259319 
1669.000000	100.257298 
1668.000000	100.255385 
1667.000000	100.253583 
1666.000000	100.251082 
1665.000000	100.247340 
1664.000000	100.243320 
1663.000000	100.240941 
1662.000000	100.241373 
1661.000000	100.245266 
1660.000000	100.250946 
1659.000000	100.256227 
1658.000000	100.259594 
1657.000000	100.261421 
1656.000000	100.259365 
1655.000000	100.251919 
1654.000000	100.242191 
1653.000000	100.235071 
1652.000000	100.236143 
1651.000000	100.246249 
1650.000000	100.257290 
1649.000000	100.260335 
1648.000000	100.257880 
1647.000000	100.254122 
1646.000000	100.252733 
1645.000000	100.254035 
1644.000000	100.258433 
1643.000000	100.262652 
1642.000000	100.263378 
1641.000000	100.259826 
1640.000000	100.254993 
1639.000000	100.252661 
1638.000000	100.253504 
1637.000000	100.256565 
1636.000000	100.260336 
1635.000000	100.261818 
1634.000000	100.261428 
1633.000000	100.260695 
1632.000000	100.258140 
1631.000000	100.252818 
1630.000000	100.245752 
1629.000000	100.240313 
1628.000000	100.239391 
1627.000000	100.242042 
1626.000000	100.244925 
1625.000000	100.245836 
1624.000000	100.244541 
1623.000000	100.241487 
1622.000000	100.238527 
1621.000000	100.238865 
1620.000000	100.242077 
1619.000000	100.244426 
1618.000000	100.243953 
1617.000000	100.243695 
1616.000000	100.247975 
1615.000000	100.255406 
1614.000000	100.261737 
1613.000000	100.265394 
1612.000000	100.268021 
1611.000000	100.270576 
1610.000000	100.271782 
1609.000000	100.270967 
1608.000000	100.269185 
1607.000000	100.267326 
1606.000000	100.266100 
1605.000000	100.266278 
1604.000000	100.267149 
1603.000000	100.267271 
1602.000000	100.266831 
1601.000000	100.267665 
1600.000000	100.270484 
1599.000000	100.273901 
1598.000000	100.276822 
1597.000000	100.279502 
1596.000000	100.281915 
1595.000000	100.282646 
1594.000000	100.280946 
1593.000000	100.279087 
1592.000000	100.280028 
1591.000000	100.283542 
1590.000000	100.287058 
1589.000000	100.289709 
1588.000000	100.292745 
1587.000000	100.296277 
1586.000000	100.298751 
1585.000000	100.299794 
1584.000000	100.300094 
1583.000000	100.299391 
1582.000000	100.297462 
1581.000000	100.295253 
1580.000000	100.293335 
1579.000000	100.290541 
1578.000000	100.286124 
1577.000000	100.281996 
1576.000000	100.280217 
1575.000000	100.280207 
1574.000000	100.282102 
1573.000000	100.285271 
1572.000000	100.286561 
1571.000000	100.285100 
1570.000000	100.283517 
1569.000000	100.286058 
1568.000000	100.291908 
1567.000000	100.296265 
1566.000000	100.296096 
1565.000000	100.293111 
1564.000000	100.289190 
1563.000000	100.284855 
1562.000000	100.279394 
1561.000000	100.274077 
1560.000000	100.273532 
1559.000000	100.274526 
1558.000000	100.270655 
1557.000000	100.272853 
1556.000000	100.283796 
1555.000000	100.289539 
1554.000000	100.289765 
1553.000000	100.286746 
1552.000000	100.283868 
1551.000000	100.280392 
1550.000000	100.278604 
1549.000000	100.281427 
1548.000000	100.287785 
1547.000000	100.291356 
1546.000000	100.286918 
1545.000000	100.275770 
1544.000000	100.265826 
1543.000000	100.265076 
1542.000000	100.274895 
1541.000000	100.289173 
1540.000000	100.297547 
1539.000000	100.295123 
1538.000000	100.290351 
1537.000000	100.290295 
1536.000000	100.291766 
1535.000000	100.291106 
1534.000000	100.286350 
1533.000000	100.279169 
1532.000000	100.274386 
1531.000000	100.275034 
1530.000000	100.277203 
1529.000000	100.276700 
1528.000000	100.274448 
1527.000000	100.273755 
1526.000000	100.275590 
1525.000000	100.278121 
1524.000000	100.280348 
1523.000000	100.283697 
1522.000000	100.288519 
1521.000000	100.290907 
1520.000000	100.288550 
1519.000000	100.282678 
1518.000000	100.273481 
1517.000000	100.263046 
1516.000000	100.257432 
1515.000000	100.259453 
1514.000000	100.264898 
1513.000000	100.267372 
1512.000000	100.265481 
1511.000000	100.262655 
1510.000000	100.261189 
1509.000000	100.260201 
1508.000000	100.261640 
1507.000000	100.269409 
1506.000000	100.274939 
1505.000000	100.272956 
1504.000000	100.271597 
1503.000000	100.273361 
1502.000000	100.276701 
1501.000000	100.277915 
1500.000000	100.274840 
1499.000000	100.268906 
1498.000000	100.262720 
1497.000000	100.253983 
1496.000000	100.241481 
1495.000000	100.232065 
1494.000000	100.230427 
1493.000000	100.233092 
1492.000000	100.235375 
1491.000000	100.236172 
1490.000000	100.235630 
1489.000000	100.232193 
1488.000000	100.227240 
1487.000000	100.224572 
1486.000000	100.223356 
1485.000000	100.221739 
1484.000000	100.219850 
1483.000000	100.218472 
1482.000000	100.218259 
1481.000000	100.218916 
1480.000000	100.219938 
1479.000000	100.220368 
1478.000000	100.218546 
1477.000000	100.213945 
1476.000000	100.210080 
1475.000000	100.211127 
1474.000000	100.215801 
1473.000000	100.217206 
1472.000000	100.211313 
1471.000000	100.203758 
1470.000000	100.199545 
1469.000000	100.196527 
1468.000000	100.192052 
1467.000000	100.187068 
1466.000000	100.184338 
1465.000000	100.185424 
1464.000000	100.189348 
1463.000000	100.194512 
1462.000000	100.198438 
1461.000000	100.198431 
1460.000000	100.194177 
1459.000000	100.187817 
1458.000000	100.181497 
1457.000000	100.172192 
1456.000000	100.159386 
1455.000000	100.151520 
1454.000000	100.151657 
1453.000000	100.154173 
1452.000000	100.156020 
1451.000000	100.157592 
1450.000000	100.159681 
1449.000000	100.160169 
1448.000000	100.158658 
1447.000000	100.158816 
1446.000000	100.163411 
1445.000000	100.169859 
1444.000000	100.173934 
1443.000000	100.175465 
1442.000000	100.176686 
1441.000000	100.178186 
1440.000000	100.178773 
1439.000000	100.178443 
1438.000000	100.178981 
1437.000000	100.180476 
1436.000000	100.181056 
1435.000000	100.181785 
1434.000000	100.183524 
1433.000000	100.182572 
1432.000000	100.176939 
1431.000000	100.169938 
1430.000000	100.166048 
1429.000000	100.164685 
1428.000000	100.162672 
1427.000000	100.159631 
1426.000000	100.157059 
1425.000000	100.155114 
1424.000000	100.151576 
1423.000000	100.145674 
1422.000000	100.138121 
1421.000000	100.127528 
1420.000000	100.112294 
1419.000000	100.097325 
1418.000000	100.090149 
1417.000000	100.087582 
1416.000000	100.080439 
1415.000000	100.066423 
1414.000000	100.050379 
1413.000000	100.035991 
1412.000000	100.022689 
1411.000000	100.010008 
1410.000000	99.999576  
1409.000000	99.991145  
1408.000000	99.983288  
1407.000000	99.977467  
1406.000000	99.977175  
1405.000000	99.983084  
1404.000000	99.991866  
1403.000000	100.002453 
1402.000000	100.017011 
1401.000000	100.035228 
1400.000000	100.052476 
1399.000000	100.062800 
1398.000000	100.062013 
1397.000000	100.046329 
1396.000000	100.014253 
1395.000000	99.976956  
1394.000000	99.959037  
1393.000000	99.974520  
1392.000000	100.011603 
1391.000000	100.049183 
1390.000000	100.074587 
1389.000000	100.085555 
1388.000000	100.084592 
1387.000000	100.075457 
1386.000000	100.063493 
1385.000000	100.053615 
1384.000000	100.046809 
1383.000000	100.041497 
1382.000000	100.037031 
1381.000000	100.034754 
1380.000000	100.036998 
1379.000000	100.044931 
1378.000000	100.057486 
1377.000000	100.071871 
1376.000000	100.084922 
1375.000000	100.094531 
1374.000000	100.101447 
1373.000000	100.108807 
1372.000000	100.118427 
1371.000000	100.128689 
1370.000000	100.137193 
1369.000000	100.144208 
1368.000000	100.151251 
1367.000000	100.158771 
1366.000000	100.166387 
1365.000000	100.174275 
1364.000000	100.183203 
1363.000000	100.192703 
1362.000000	100.200299 
1361.000000	100.204666 
1360.000000	100.207776 
1359.000000	100.212349 
1358.000000	100.219117 
1357.000000	100.226579 
1356.000000	100.232442 
1355.000000	100.235905 
1354.000000	100.238702 
1353.000000	100.243152 
1352.000000	100.249616 
1351.000000	100.255662 
1350.000000	100.258514 
1349.000000	100.258788 
1348.000000	100.259259 
1347.000000	100.261227 
1346.000000	100.263572 
1345.000000	100.265099 
1344.000000	100.265713 
1343.000000	100.265453 
1342.000000	100.264172 
1341.000000	100.262890 
1340.000000	100.263643 
1339.000000	100.266913 
1338.000000	100.270927 
1337.000000	100.274208 
1336.000000	100.276921 
1335.000000	100.279335 
1334.000000	100.280612 
1333.000000	100.280126 
1332.000000	100.279017 
1331.000000	100.278978 
1330.000000	100.280045 
1329.000000	100.280835 
1328.000000	100.280534 
1327.000000	100.279402 
1326.000000	100.277845 
1325.000000	100.276252 
1324.000000	100.275124 
1323.000000	100.275090 
1322.000000	100.276523 
1321.000000	100.279357 
1320.000000	100.283257 
1319.000000	100.287530 
1318.000000	100.290714 
1317.000000	100.290993 
1316.000000	100.287821 
1315.000000	100.282949 
1314.000000	100.279135 
1313.000000	100.277514 
1312.000000	100.276864 
1311.000000	100.275741 
1310.000000	100.274496 
1309.000000	100.274442 
1308.000000	100.275759 
1307.000000	100.276908 
1306.000000	100.276215 
1305.000000	100.273715 
1304.000000	100.270904 
1303.000000	100.269380 
1302.000000	100.269676 
1301.000000	100.271033 
1300.000000	100.272115 
1299.000000	100.272293 
1298.000000	100.272268 
1297.000000	100.273206 
1296.000000	100.275151 
1295.000000	100.276474 
1294.000000	100.275197 
1293.000000	100.270733 
1292.000000	100.264382 
1291.000000	100.258405 
1290.000000	100.254608 
1289.000000	100.253330 
1288.000000	100.253232 
1287.000000	100.252047 
1286.000000	100.248219 
1285.000000	100.242296 
1284.000000	100.236462 
1283.000000	100.232295 
1282.000000	100.229050 
1281.000000	100.224695 
1280.000000	100.218459 
1279.000000	100.211460 
1278.000000	100.204976 
1277.000000	100.199211 
1276.000000	100.194151 
1275.000000	100.190255 
1274.000000	100.187372 
1273.000000	100.183921 
1272.000000	100.178383 
1271.000000	100.171159 
1270.000000	100.163889 
1269.000000	100.157310 
1268.000000	100.150852 
1267.000000	100.143989 
1266.000000	100.136681 
1265.000000	100.128512 
1264.000000	100.118820 
1263.000000	100.107885 
1262.000000	100.096765 
1261.000000	100.085958 
1260.000000	100.075488 
1259.000000	100.066234 
1258.000000	100.059680 
1257.000000	100.055903 
1256.000000	100.053399 
1255.000000	100.051288 
1254.000000	100.050181 
1253.000000	100.050275 
1252.000000	100.050277 
1251.000000	100.049273 
1250.000000	100.048389 
1249.000000	100.049352 
1248.000000	100.052273 
1247.000000	100.055589 
1246.000000	100.056676 
1245.000000	100.051498 
1244.000000	100.036480 
1243.000000	100.014139 
1242.000000	99.995408  
1241.000000	99.991751  
1240.000000	100.003703 
1239.000000	100.019659 
1238.000000	100.027147 
1237.000000	100.023443 
1236.000000	100.014249 
1235.000000	100.005111 
1234.000000	99.997019  
1233.000000	99.988667  
1232.000000	99.979191  
1231.000000	99.968093  
1230.000000	99.955164  
1229.000000	99.941994  
1228.000000	99.932122  
1227.000000	99.927892  
1226.000000	99.927371  
1225.000000	99.925693  
1224.000000	99.919626  
1223.000000	99.910051  
1222.000000	99.899988  
1221.000000	99.891292  
1220.000000	99.883811  
1219.000000	99.876774  
1218.000000	99.869625  
1217.000000	99.861364  
1216.000000	99.850252  
1215.000000	99.835102  
1214.000000	99.816565  
1213.000000	99.796328  
1212.000000	99.775137  
1211.000000	99.752545  
1210.000000	99.728821  
1209.000000	99.706133  
1208.000000	99.686792  
1207.000000	99.670456  
1206.000000	99.654027  
1205.000000	99.634906  
1204.000000	99.613788  
1203.000000	99.593657  
1202.000000	99.576406  
1201.000000	99.561154  
1200.000000	99.545539  
1199.000000	99.527805  
1198.000000	99.507633  
1197.000000	99.485722  
1196.000000	99.462925  
1195.000000	99.439553  
1194.000000	99.415438  
1193.000000	99.390789  
1192.000000	99.366507  
1191.000000	99.343145  
1190.000000	99.320022  
1189.000000	99.296122  
1188.000000	99.271425  
1187.000000	99.246535  
1186.000000	99.221584  
1185.000000	99.196643  
1184.000000	99.172666  
1183.000000	99.150470  
1182.000000	99.128959  
1181.000000	99.105935  
1180.000000	99.080534  
1179.000000	99.053261  
1178.000000	99.024060  
1177.000000	98.992499  
1176.000000	98.959756  
1175.000000	98.927728  
1174.000000	98.895492  
1173.000000	98.859416  
1172.000000	98.818298  
1171.000000	98.776267  
1170.000000	98.738748  
1169.000000	98.707013  
1168.000000	98.678421  
1167.000000	98.651108  
1166.000000	98.627103  
1165.000000	98.611533  
1164.000000	98.609309  
1163.000000	98.621256  
1162.000000	98.642617  
1161.000000	98.666370  
1160.000000	98.688086  
1159.000000	98.706032  
1158.000000	98.716968  
1157.000000	98.714937  
1156.000000	98.695993  
1155.000000	98.662879  
1154.000000	98.623714  
1153.000000	98.586540  
1152.000000	98.555301  
1151.000000	98.529110  
1150.000000	98.503897  
1149.000000	98.475928  
1148.000000	98.444996  
1147.000000	98.413724  
1146.000000	98.383706  
1145.000000	98.353852  
1144.000000	98.322827  
1143.000000	98.291122  
1142.000000	98.260003  
1141.000000	98.230341  
1140.000000	98.203206  
1139.000000	98.179317  
1138.000000	98.156586  
1137.000000	98.130400  
1136.000000	98.098273  
1135.000000	98.062783  
1134.000000	98.028188  
1133.000000	97.995285  
1132.000000	97.961336  
1131.000000	97.924454  
1130.000000	97.886657  
1129.000000	97.852442  
1128.000000	97.824276  
1127.000000	97.798891  
1126.000000	97.768926  
1125.000000	97.730207  
1124.000000	97.686930  
1123.000000	97.647221  
1122.000000	97.613808  
1121.000000	97.581991  
1120.000000	97.546860  
1119.000000	97.508793  
1118.000000	97.470788  
1117.000000	97.434083  
1116.000000	97.398532  
1115.000000	97.364479  
1114.000000	97.331960  
1113.000000	97.300000  
1112.000000	97.268198  
1111.000000	97.236827  
1110.000000	97.204348  
1109.000000	97.167743  
1108.000000	97.127106  
1107.000000	97.087423  
1106.000000	97.053328  
1105.000000	97.023982  
1104.000000	96.995240  
1103.000000	96.965029  
1102.000000	96.934925  
1101.000000	96.907695  
1100.000000	96.884932  
1099.000000	96.866241  
1098.000000	96.848910  
1097.000000	96.830476  
1096.000000	96.811267  
1095.000000	96.792672  
1094.000000	96.772669  
1093.000000	96.745831  
1092.000000	96.708810  
1091.000000	96.663991  
1090.000000	96.617313  
1089.000000	96.574324  
1088.000000	96.538183  
1087.000000	96.508516  
1086.000000	96.481560  
1085.000000	96.453948  
1084.000000	96.426508  
1083.000000	96.401780  
1082.000000	96.378426  
1081.000000	96.351922  
1080.000000	96.320870  
1079.000000	96.288799  
1078.000000	96.259529  
1077.000000	96.234756  
1076.000000	96.216366  
1075.000000	96.206361  
1074.000000	96.203255  
1073.000000	96.202031  
1072.000000	96.197185  
1071.000000	96.181084  
1070.000000	96.141145  
1069.000000	96.067909  
1068.000000	95.969873  
1067.000000	95.874130  
1066.000000	95.806144  
1065.000000	95.770600  
1064.000000	95.753974  
1063.000000	95.739588  
1062.000000	95.715257  
1061.000000	95.672703  
1060.000000	95.609596  
1059.000000	95.534135  
1058.000000	95.462373  
1057.000000	95.407342  
1056.000000	95.370571  
1055.000000	95.343232  
1054.000000	95.314194  
1053.000000	95.277947  
1052.000000	95.236352  
1051.000000	95.193374  
1050.000000	95.149558  
1049.000000	95.103493  
1048.000000	95.056846  
1047.000000	95.014086  
1046.000000	94.977558  
1045.000000	94.945752  
1044.000000	94.915795  
1043.000000	94.885081  
1042.000000	94.851755  
1041.000000	94.816719  
1040.000000	94.784425  
1039.000000	94.759151  
1038.000000	94.741635  
1037.000000	94.731529  
1036.000000	94.730353  
1035.000000	94.738244  
1034.000000	94.750385  
1033.000000	94.760758  
1032.000000	94.766631  
1031.000000	94.765639  
1030.000000	94.753780  
1029.000000	94.733683  
1028.000000	94.720887  
1027.000000	94.731725  
1026.000000	94.764513  
1025.000000	94.800704  
1024.000000	94.824866  
1023.000000	94.836007  
1022.000000	94.840003  
1021.000000	94.840659  
1020.000000	94.841072  
1019.000000	94.845559  
1018.000000	94.855155  
1017.000000	94.865858  
1016.000000	94.874700  
1015.000000	94.883625  
1014.000000	94.895106  
1013.000000	94.907822  
1012.000000	94.918711  
1011.000000	94.926065  
1010.000000	94.929631  
1009.000000	94.931308  
1008.000000	94.936330  
1007.000000	94.949698  
1006.000000	94.970435  
1005.000000	94.992866  
1004.000000	95.013656  
1003.000000	95.033741  
1002.000000	95.053946  
1001.000000	95.073726  
1000.000000	95.094201  
999.000000	 95.117119  
998.000000	 95.140391  
997.000000	 95.160099  
996.000000	 95.177831  
995.000000	 95.200590  
994.000000	 95.231737  
993.000000	 95.266754  
992.000000	 95.299541  
991.000000	 95.328439  
990.000000	 95.354641  
989.000000	 95.379331  
988.000000	 95.404569  
987.000000	 95.433317  
986.000000	 95.466570  
985.000000	 95.503175  
984.000000	 95.543206  
983.000000	 95.588128  
982.000000	 95.637030  
981.000000	 95.686465  
980.000000	 95.734999  
979.000000	 95.784708  
978.000000	 95.837699  
977.000000	 95.894446  
976.000000	 95.955593  
975.000000	 96.021458  
974.000000	 96.089224  
973.000000	 96.154513  
972.000000	 96.216564  
971.000000	 96.278593  
970.000000	 96.342673  
969.000000	 96.407513  
968.000000	 96.471439  
967.000000	 96.533939  
966.000000	 96.593832  
965.000000	 96.649523  
964.000000	 96.701768  
963.000000	 96.753203  
962.000000	 96.804817  
961.000000	 96.855814  
960.000000	 96.906583  
959.000000	 96.957843  
958.000000	 97.006718  
957.000000	 97.048174  
956.000000	 97.081772  
955.000000	 97.113332  
954.000000	 97.148211  
953.000000	 97.185866  
952.000000	 97.222497  
951.000000	 97.255946  
950.000000	 97.286032  
949.000000	 97.312523  
948.000000	 97.335004  
947.000000	 97.353591  
946.000000	 97.368539  
945.000000	 97.380242  
944.000000	 97.390300  
943.000000	 97.401346  
942.000000	 97.415186  
941.000000	 97.431956  
940.000000	 97.450810  
939.000000	 97.470098  
938.000000	 97.487624  
937.000000	 97.502735  
936.000000	 97.517749  
935.000000	 97.535392  
934.000000	 97.555441  
933.000000	 97.576029  
932.000000	 97.597326  
931.000000	 97.621044  
930.000000	 97.646576  
929.000000	 97.670245  
928.000000	 97.688424  
927.000000	 97.699596  
926.000000	 97.704526  
925.000000	 97.707138  
924.000000	 97.714239  
923.000000	 97.730576  
922.000000	 97.753543  
921.000000	 97.775303  
920.000000	 97.790368  
919.000000	 97.799040  
918.000000	 97.804313  
917.000000	 97.808459  
916.000000	 97.812528  
915.000000	 97.816204  
914.000000	 97.817928  
913.000000	 97.817650  
912.000000	 97.819409  
911.000000	 97.828623  
910.000000	 97.846863  
909.000000	 97.871629  
908.000000	 97.900558  
907.000000	 97.932795  
906.000000	 97.966700  
905.000000	 97.999631  
904.000000	 98.030536  
903.000000	 98.060718  
902.000000	 98.092419  
901.000000	 98.128124  
900.000000	 98.169565  
899.000000	 98.214722  
898.000000	 98.257221  
897.000000	 98.291739  
896.000000	 98.318417  
895.000000	 98.339712  
894.000000	 98.355932  
893.000000	 98.368086  
892.000000	 98.382771  
891.000000	 98.408540  
890.000000	 98.447184  
889.000000	 98.492290  
888.000000	 98.535713  
887.000000	 98.571935  
886.000000	 98.598040  
885.000000	 98.614809  
884.000000	 98.627642  
883.000000	 98.641804  
882.000000	 98.656691  
881.000000	 98.668832  
880.000000	 98.679677  
879.000000	 98.695005  
878.000000	 98.716533  
877.000000	 98.739746  
876.000000	 98.760800  
875.000000	 98.780156  
874.000000	 98.798569  
873.000000	 98.815129  
872.000000	 98.830885  
871.000000	 98.849379  
870.000000	 98.871828  
869.000000	 98.896175  
868.000000	 98.922205  
867.000000	 98.952645  
866.000000	 98.987158  
865.000000	 99.020039  
864.000000	 99.047092  
863.000000	 99.071242  
862.000000	 99.097647  
861.000000	 99.125489  
860.000000	 99.148483  
859.000000	 99.162879  
858.000000	 99.171837  
857.000000	 99.181575  
856.000000	 99.195582  
855.000000	 99.213497  
854.000000	 99.233560  
853.000000	 99.253907  
852.000000	 99.271868  
851.000000	 99.284768  
850.000000	 99.293229  
849.000000	 99.301889  
848.000000	 99.314056  
847.000000	 99.326604  
846.000000	 99.333481  
845.000000	 99.333829  
844.000000	 99.332520  
843.000000	 99.332517  
842.000000	 99.331754  
841.000000	 99.328906  
840.000000	 99.326568  
839.000000	 99.325602  
838.000000	 99.321502  
837.000000	 99.310702  
836.000000	 99.296202  
835.000000	 99.282409  
834.000000	 99.268996  
833.000000	 99.255839  
832.000000	 99.249705  
831.000000	 99.257413  
830.000000	 99.273490  
829.000000	 99.283351  
828.000000	 99.280242  
827.000000	 99.271964  
826.000000	 99.268903  
825.000000	 99.272130  
824.000000	 99.276554  
823.000000	 99.279819  
822.000000	 99.283769  
821.000000	 99.290525  
820.000000	 99.299745  
819.000000	 99.307877  
818.000000	 99.309977  
817.000000	 99.304124  
816.000000	 99.292550  
815.000000	 99.276130  
814.000000	 99.250491  
813.000000	 99.211140  
812.000000	 99.159128  
811.000000	 99.096075  
810.000000	 99.016205  
809.000000	 98.910702  
808.000000	 98.779681  
807.000000	 98.632986  
806.000000	 98.478768  
805.000000	 98.318842  
804.000000	 98.157559  
803.000000	 98.007523  
802.000000	 97.881646  
801.000000	 97.784347  
800.000000	 97.714263  
799.000000	 97.670817  
798.000000	 97.654421  
797.000000	 97.663466  
796.000000	 97.693072  
795.000000	 97.734439  
794.000000	 97.776651  
793.000000	 97.813799  
792.000000	 97.849281  
791.000000	 97.888122  
790.000000	 97.926283  
789.000000	 97.952611  
788.000000	 97.959558  
787.000000	 97.946223  
786.000000	 97.913001  
785.000000	 97.860824  
784.000000	 97.795825  
783.000000	 97.728343  
782.000000	 97.666393  
781.000000	 97.614611  
780.000000	 97.577876  
779.000000	 97.559198  
778.000000	 97.555444  
777.000000	 97.562918  
776.000000	 97.585999  
775.000000	 97.631422  
774.000000	 97.694385  
773.000000	 97.759846  
772.000000	 97.818696  
771.000000	 97.874201  
770.000000	 97.931281  
769.000000	 97.987343  
768.000000	 98.035521  
767.000000	 98.070572  
766.000000	 98.091072  
765.000000	 98.102258  
764.000000	 98.116164  
763.000000	 98.141068  
762.000000	 98.170299  
761.000000	 98.189422  
760.000000	 98.195262  
759.000000	 98.199871  
758.000000	 98.214926  
757.000000	 98.240198  
756.000000	 98.267938  
755.000000	 98.289522  
754.000000	 98.296981  
753.000000	 98.288513  
752.000000	 98.276398  
751.000000	 98.280944  
750.000000	 98.311073  
749.000000	 98.355495  
748.000000	 98.395344  
747.000000	 98.420320  
746.000000	 98.432150  
745.000000	 98.439913  
744.000000	 98.454470  
743.000000	 98.481049  
742.000000	 98.514703  
741.000000	 98.547675  
740.000000	 98.580565  
739.000000	 98.619239  
738.000000	 98.661519  
737.000000	 98.695688  
736.000000	 98.713243  
735.000000	 98.715763  
734.000000	 98.709530  
733.000000	 98.702032  
732.000000	 98.703519  
731.000000	 98.720910  
730.000000	 98.747419  
729.000000	 98.768056  
728.000000	 98.777350  
727.000000	 98.782812  
726.000000	 98.790230  
725.000000	 98.795722  
724.000000	 98.795165  
723.000000	 98.791537  
722.000000	 98.789386  
721.000000	 98.791318  
720.000000	 98.803032  
719.000000	 98.831286  
718.000000	 98.871834  
717.000000	 98.908193  
716.000000	 98.926661  
715.000000	 98.926082  
714.000000	 98.912925  
713.000000	 98.897049  
712.000000	 98.893540  
711.000000	 98.914970  
710.000000	 98.954616  
709.000000	 98.987699  
708.000000	 98.995628  
707.000000	 98.980973  
706.000000	 98.955890  
705.000000	 98.926332  
704.000000	 98.893524  
703.000000	 98.859857  
702.000000	 98.823216  
701.000000	 98.773886  
700.000000	 98.706166  
699.000000	 98.626188  
698.000000	 98.544471  
697.000000	 98.468814  
696.000000	 98.408927  
695.000000	 98.377519  
694.000000	 98.377464  
693.000000	 98.397744  
692.000000	 98.428809  
691.000000	 98.471272  
690.000000	 98.525191  
689.000000	 98.581912  
688.000000	 98.633759  
687.000000	 98.679867  
686.000000	 98.713590  
685.000000	 98.721020  
684.000000	 98.703787  
683.000000	 98.687406  
682.000000	 98.694890  
681.000000	 98.722805  
680.000000	 98.751791  
679.000000	 98.768134  
678.000000	 98.767712  
677.000000	 98.756142  
676.000000	 98.752487  
675.000000	 98.774449  
674.000000	 98.813595  
673.000000	 98.838084  
672.000000	 98.827979  
671.000000	 98.795180  
670.000000	 98.762409  
669.000000	 98.747659  
668.000000	 98.764768  
667.000000	 98.804406  
666.000000	 98.843746  
665.000000	 98.875026  
664.000000	 98.896700  
663.000000	 98.922957  
662.000000	 98.964962  
661.000000	 99.005538  
660.000000	 99.011959  
659.000000	 98.975934  
658.000000	 98.922111  
657.000000	 98.877724  
656.000000	 98.850447  
655.000000	 98.838219  
654.000000	 98.841676  
653.000000	 98.856003  
652.000000	 98.867155  
651.000000	 98.867408  
650.000000	 98.862869  

